69.30937 0.0261959
69.65148 0.026195
69.99623 0.0261947
70.34028 0.0261946
70.68586 0.0261946
71.03003 0.0261946
71.37175 0.0261946
71.71517 0.0261944
72.05695 0.0261936
72.39947 0.0261927
72.74259 0.0261923
73.08525 0.0261922
73.42746 0.0261922
73.76822 0.0261921
74.11036 0.0261915
74.45297 0.0261903
74.79501 0.0261896
75.13755 0.0261896
75.47603 0.0261893
75.81794 0.026188
76.16134 0.0261868
76.50346 0.0261866
76.84647 0.0261864
77.18813 0.0261859
77.53177 0.0261854
77.8731 0.0261848
78.21578 0.0261841
78.55894 0.026184
78.90097 0.0261835
79.64738 0.0261814
79.99229 0.0261793
80.33362 0.0261783
80.67548 0.0261771
81.01798 0.0261767
81.36382 0.0261766
81.70531 0.0261763
82.04586 0.0261756
82.38956 0.0261742
82.72875 0.026173
83.07212 0.0261662
83.41249 0.0261588
83.75361 0.0261582
84.09428 0.0261581
84.43946 0.0261573
84.77961 0.0261564
85.12491 0.026156
85.46809 0.026156
85.8114 0.0261556
86.15661 0.0261554
86.50004 0.0261553
86.8459 0.0261553
87.19159 0.0261553
87.53575 0.0261553
87.87874 0.026155
88.22377 0.0261545
88.56556 0.0261541
88.90852 0.0261538
89.24996 0.0261535
89.59317 0.0261531
89.93567 0.0261529
90.27761 0.0261528
90.62059 0.0261524
90.96265 0.0261518
91.3083 0.0261513
91.65178 0.0261504
91.9948 0.0261489
92.33752 0.0261477
92.68199 0.0261474
93.02342 0.0261472
93.36528 0.0261467
93.70842 0.0261461
94.0511 0.026146
94.39249 0.0261459
94.73646 0.0261457
95.48234 0.0261454
95.82537 0.0261445
96.16771 0.0261438
96.50934 0.0261436
96.8512 0.0261429
97.19217 0.0261421
97.53444 0.0261416
97.87681 0.0261413
98.21914 0.0261411
98.56273 0.0261406
98.90541 0.0261341
99.24636 0.0261277
99.59749 0.0261263
99.94225 0.0261254
100.2845 0.0261254
100.6285 0.0261254
100.9743 0.0261254
101.3179 0.026125
101.6616 0.026125
102.0038 0.026125
102.3442 0.0261247
102.6854 0.0261247
103.0299 0.0261247
103.3725 0.0261247
103.7148 0.0261247
104.0576 0.0261249
104.4001 0.0261249
104.7443 0.0261246
105.0873 0.0261243
105.4288 0.0261239
105.7694 0.0261235
106.1095 0.0261232
106.4501 0.0261225
106.7939 0.0261218
107.1367 0.0261216
107.4812 0.0261211
107.8267 0.0261207
108.1696 0.0261205
108.5114 0.0261203
108.8541 0.0261198
109.1966 0.0261189
109.5401 0.0261183
109.8826 0.0261183
110.2249 0.0261181
110.5674 0.0261177
111.315 0.0261173
111.6591 0.0261171
112.0009 0.0261166
112.3436 0.0261161
112.6838 0.0261158
113.0249 0.0261149
113.366 0.026114
113.7083 0.0261137
114.0532 0.0261134
114.3961 0.0261131
114.7392 0.0261079
115.0824 0.0261035
115.4289 0.0261035
115.7717 0.0261032
116.1147 0.026102
116.4559 0.0261018
116.7971 0.0261012
117.1402 0.0261012
117.4832 0.0261012
117.8246 0.0261012
118.1647 0.0261011
118.508 0.0261011
118.8478 0.0261011
119.1891 0.0261011
119.5321 0.0261011
119.8755 0.0261011
120.2171 0.0261009
120.5605 0.0261009
120.9016 0.0261009
121.2503 0.0261004
121.5914 0.0260998
121.9318 0.0260992
122.2759 0.0260989
122.6183 0.0260978
122.9622 0.0260964
123.305 0.0260943
123.6467 0.0260928
123.9888 0.0260926
124.3319 0.0260924
124.6755 0.0260924
125.0181 0.0260924
125.3641 0.0260924
125.7094 0.0260924
126.0512 0.0260923
126.3945 0.0260923
127.1385 0.0260923
127.4811 0.0260923
127.8262 0.026092
128.1671 0.0260917
128.5158 0.0260914
128.856 0.0260912
129.1972 0.0260912
129.5418 0.0260912
129.8844 0.026091
130.2274 0.0260898
130.57 0.0260875
130.913 0.0260862
131.2561 0.0260857
131.5974 0.0260851
131.9423 0.0260848
132.2841 0.0260841
132.6308 0.0260834
132.9766 0.0260834
133.3195 0.0260832
133.6641 0.0260829
134.0088 0.0260822
134.3514 0.0260822
134.6943 0.0260822
135.0357 0.0260822
135.3815 0.0260817
135.7256 0.0260817
136.0686 0.0260814
136.4114 0.0260812
136.7528 0.0260811
137.095 0.0260802
137.4354 0.026079
137.7801 0.0260783
138.1227 0.0260774
138.4641 0.0260768
138.808 0.0260765
139.1508 0.0260763
139.4917 0.0260762
139.8344 0.026076
140.1752 0.0260757
140.5175 0.0260751
140.8618 0.0260743
141.2035 0.0260737
141.5451 0.0260733
141.8863 0.0260727
142.2315 0.0260718
142.9765 0.0260714
143.3161 0.0260713
143.657 0.0260709
143.9984 0.0260704
144.3416 0.0260701
144.6842 0.0260699
145.0281 0.0260688
145.3696 0.0260676
145.7141 0.0260673
146.0586 0.0260654
146.4002 0.0260595
146.7442 0.0260553
147.0854 0.0260553
147.4312 0.0260553
147.7743 0.0260552
148.1151 0.0260552
148.46 0.0260552
148.8004 0.0260549
149.1458 0.0260544
149.4883 0.0260544
149.8299 0.0260544
150.1734 0.0260547
150.5158 0.0260549
150.8598 0.0260551
151.2007 0.0260553
151.5439 0.0260554
151.8873 0.0260555
152.2303 0.0260555
152.5734 0.0260555
152.9161 0.0260555
153.2605 0.0260554
153.605 0.0260554
153.9474 0.0260553
154.2893 0.0260549
154.6305 0.0260543
154.9729 0.0260539
155.314 0.0260533
155.6622 0.0260528
156.0052 0.0260527
156.3474 0.0260525
156.6891 0.0260523
157.0343 0.0260519
157.3797 0.0260512
157.7226 0.0260505
158.0652 0.0260501
158.8123 0.0260498
159.1527 0.0260496
159.4958 0.026049
159.8372 0.0260486
160.1805 0.0260485
160.5216 0.026048
160.8625 0.0260475
161.2032 0.0260467
161.545 0.0260458
161.8857 0.0260455
162.2283 0.0260433
162.5694 0.0260412
162.9121 0.0260401
163.2545 0.026039
163.5963 0.0260387
163.9389 0.0260386
164.2817 0.0260384
164.6233 0.0260382
164.9642 0.0260378
165.309 0.0260378
165.6517 0.0260378
165.9954 0.0260382
166.339 0.0260382
166.6815 0.0260384
167.0271 0.0260386
167.3701 0.0260387
167.711 0.0260386
168.0531 0.0260384
168.3985 0.0260382
168.7435 0.0260382
169.0863 0.0260382
169.4293 0.0260381
169.7699 0.0260381
170.1123 0.0260381
170.4552 0.0260377
170.7978 0.0260374
171.1399 0.0260373
171.4823 0.0260373
171.8241 0.0260373
172.1649 0.0260366
172.5074 0.0260355
172.8479 0.0260339
173.1936 0.0260328
173.5361 0.0260324
173.878 0.0260319
174.6225 0.0260316
174.964 0.0260314
175.3082 0.0260313
175.6484 0.0260311
175.9897 0.0260309
176.3327 0.0260308
176.6745 0.0260305
177.0152 0.0260301
177.3576 0.0260301
177.6976 0.0260296
178.0437 0.0260256
178.3847 0.0260211
178.7278 0.0260211
179.0714 0.0260203
179.4141 0.0260201
179.7571 0.0260196
180.0984 0.0260191
180.4409 0.026019
180.7834 0.026019
181.1247 0.026019
181.4642 0.026019
181.8077 0.026019
182.1504 0.026019
182.4927 0.026019
182.833 0.026019
183.1736 0.026019
183.5159 0.026019
183.8605 0.0260189
184.2041 0.0260187
184.5464 0.0260183
184.8893 0.0260179
185.2314 0.0260179
185.575 0.0260178
185.9176 0.0260176
186.2586 0.0260173
186.6012 0.0260169
186.9434 0.0260169
187.2855 0.0260168
187.6275 0.0260167
187.9683 0.0260162
188.3085 0.0260155
188.6498 0.0260145
188.9933 0.0260138
189.3354 0.0260132
189.678 0.0260126
190.4245 0.0260119
190.7666 0.0260109
191.1091 0.0260104
191.4523 0.0260103
191.7937 0.02601
192.1343 0.0260097
192.4761 0.0260095
192.817 0.0260094
193.1598 0.0260094
193.5016 0.0260092
193.8433 0.0260072
194.1852 0.0260056
194.5283 0.0260052
194.8685 0.0260052
195.2125 0.0260052
195.5537 0.0260052
195.8947 0.0260052
196.2366 0.0260052
196.5781 0.0260052
196.9198 0.0260052
197.2624 0.0260052
197.6026 0.0260056
197.9433 0.0260056
198.2839 0.0260058
198.6273 0.0260058
198.9673 0.0260058
199.3112 0.0260058
199.6515 0.0260058
199.9936 0.0260058
200.3365 0.0260058
200.6785 0.0260058
201.0181 0.026006
201.3603 0.026006
201.7009 0.0260053
202.0457 0.0260053
202.3865 0.0260051
202.7273 0.0260047
203.0682 0.0260045
203.41 0.0260044
203.7525 0.0260042
204.0965 0.0260042
204.4394 0.0260041
204.7819 0.0260041
205.1271 0.0260041
205.4691 0.026004
206.2119 0.026004
206.5525 0.026004
206.8935 0.0260038
207.2343 0.0260037
207.5775 0.0260037
207.9183 0.0260037
208.2605 0.0260037
208.6018 0.0260034
208.9441 0.0260029
209.2862 0.0260017
209.6314 0.0259997
209.9745 0.0259982
210.3152 0.0259982
210.6574 0.0259977
211.0021 0.0259977
211.3453 0.0259971
211.6855 0.0259963
212.0311 0.0259955
212.374 0.0259945
212.7171 0.0259932
213.0603 0.0259932
213.4012 0.0259945
213.7453 0.0259951
214.0874 0.0259951
214.4311 0.0259951
214.7753 0.0259951
215.1174 0.0259951
215.4604 0.0259953
215.8056 0.0259949
216.1481 0.0259947
216.4914 0.0259947
216.8345 0.0259946
217.1787 0.0259943
217.5214 0.0259937
217.8638 0.0259931
218.2062 0.0259931
218.5471 0.0259931
218.8893 0.0259931
219.2306 0.0259934
219.5743 0.0259934
219.9152 0.0259931
220.2564 0.0259929
220.5994 0.0259928
220.9422 0.0259925
221.2828 0.0259918
222.0314 0.0259908
222.3743 0.0259902
222.7165 0.02599
223.0597 0.0259899
223.4031 0.0259895
223.7457 0.0259888
224.0873 0.0259883
224.4283 0.0259881
224.7678 0.0259878
225.1118 0.0259877
225.4543 0.0259856
225.7969 0.0259845
226.14 0.0259845
226.4815 0.0259845
226.825 0.0259843
227.1656 0.0259842
227.5089 0.0259836
227.8509 0.0259836
228.1971 0.0259835
228.5385 0.0259831
228.8801 0.0259829
229.2216 0.0259829
229.5638 0.0259829
229.9053 0.0259829
230.247 0.0259829
230.5892 0.0259827
230.9329 0.0259827
231.2748 0.0259827
231.6176 0.0259826
231.9606 0.0259821
232.3013 0.0259815
232.6438 0.0259812
233.016 0.0259812
233.3584 0.0259812
233.6997 0.0259812
234.0404 0.0259812
234.3817 0.0259809
234.7252 0.0259809
235.0653 0.0259806
235.4078 0.0259806
235.7499 0.0259806
236.0903 0.0259806
236.4323 0.0259806
236.7728 0.0259806
237.1131 0.0259806
237.8546 0.0259807
238.1955 0.0259807
238.537 0.0259807
238.878 0.0259806
239.218 0.0259806
239.56 0.0259802
239.8996 0.0259802
240.2419 0.0259794
240.584 0.0259787
240.9241 0.0259784
241.2662 0.0259757
241.6088 0.0259733
241.9481 0.0259723
242.2946 0.0259714
242.6339 0.025971
242.976 0.0259702
243.3152 0.0259695
243.6578 0.0259694
243.9993 0.0259694
244.3409 0.0259691
244.6822 0.0259687
245.0226 0.0259687
245.3637 0.0259687
245.7058 0.0259687
246.0485 0.0259683
246.3914 0.0259682
246.7335 0.025968
247.0752 0.0259677
247.4191 0.0259674
247.7596 0.0259674
248.1008 0.0259672
248.4418 0.0259672
248.7843 0.0259671
249.1249 0.025967
249.4655 0.0259669
249.8084 0.0259667
250.1502 0.0259665
250.4895 0.0259667
250.8327 0.0259667
251.1748 0.0259667
251.5151 0.0259667
251.8559 0.0259667
252.1961 0.0259665
252.5385 0.0259663
252.8804 0.0259659
253.624 0.0259659
253.9644 0.0259659
254.3052 0.0259656
254.6474 0.0259656
254.9902 0.0259656
255.3332 0.0259654
255.6752 0.0259652
256.0186 0.0259649
256.3602 0.0259646
256.7044 0.0259642
257.0452 0.0259629
257.3883 0.0259619
257.731 0.0259618
258.0712 0.0259618
258.4112 0.0259615
258.7519 0.0259614
259.0936 0.0259614
259.4359 0.0259609
259.778 0.0259603
260.1181 0.02596
260.4599 0.0259597
260.7996 0.0259597
261.141 0.0259599
261.4832 0.0259599
261.824 0.0259599
262.1663 0.0259599
262.5052 0.0259598
262.8479 0.0259596
263.1887 0.0259596
263.5325 0.0259595
263.8725 0.0259595
264.2148 0.0259592
264.5559 0.0259588
264.8985 0.0259586
265.2407 0.0259583
265.5858 0.025958
265.9261 0.0259578
266.268 0.0259577
266.6089 0.0259577
266.9489 0.0259575
267.2911 0.0259574
267.633 0.0259574
267.9762 0.0259573
268.3175 0.0259571
268.6596 0.0259571
269.4025 0.0259571
269.7446 0.0259571
270.0836 0.0259571
270.4244 0.025957
270.7659 0.0259564
271.1065 0.025956
271.4472 0.0259553
271.7891 0.0259546
272.1295 0.0259544
272.47 0.0259528
272.8103 0.0259484
273.1525 0.0259454
273.492 0.0259448
273.8328 0.0259448
274.1744 0.0259445
274.516 0.0259445
274.8573 0.0259445
275.1985 0.0259445
275.5407 0.0259445
275.8811 0.0259445
276.2207 0.0259445
276.5633 0.025945
276.9062 0.0259454
277.2488 0.0259454
277.5926 0.025946
277.9335 0.0259466
278.2743 0.0259468
278.6165 0.0259469
278.9576 0.0259469
279.3007 0.0259469
279.6421 0.0259469
279.9844 0.0259469
280.3239 0.0259469
280.6663 0.0259469
281.0062 0.0259469
281.3484 0.0259469
281.6886 0.0259466
282.0309 0.0259462
282.3723 0.0259439
282.7136 0.0259413
283.0535 0.0259408
283.3956 0.0259407
283.7375 0.0259406
284.0782 0.0259404
284.4199 0.0259404
285.1637 0.0259404
285.5062 0.0259402
285.849 0.0259401
286.1921 0.02594
286.5338 0.0259399
286.8762 0.0259397
287.2165 0.0259394
287.5585 0.0259393
287.9004 0.0259393
288.2446 0.025939
288.5836 0.025939
288.9245 0.0259392
289.2666 0.0259392
289.6098 0.0259392
289.9526 0.0259392
290.2951 0.0259392
290.6375 0.0259392
290.9779 0.0259391
291.3205 0.0259391
291.6615 0.0259389
292.0015 0.0259386
292.3438 0.0259386
292.6836 0.0259388
293.0255 0.0259388
293.3678 0.0259388
293.712 0.0259388
294.0518 0.0259388
294.3919 0.0259386
294.734 0.0259384
295.0733 0.0259383
295.4133 0.0259381
295.7541 0.0259379
296.0964 0.0259379
296.4382 0.0259376
296.7804 0.0259376
297.1208 0.0259376
297.4605 0.0259376
297.8024 0.0259376
298.1455 0.0259379
298.4873 0.0259381
298.8292 0.0259383
299.1679 0.0259383
299.5091 0.0259381
299.8512 0.0259383
300.1925 0.0259383
300.9364 0.0259382
301.2807 0.025938
301.6215 0.025938
301.9645 0.025938
302.3062 0.0259379
302.6476 0.0259379
302.9894 0.0259379
303.3292 0.0259365
303.6728 0.0259353
304.0171 0.0259342
304.3575 0.0259333
304.6996 0.0259332
305.0396 0.0259326
305.3816 0.0259319
305.7221 0.0259315
306.0642 0.0259315
306.4058 0.0259315
306.7474 0.0259315
307.0904 0.0259315
307.4368 0.0259315
307.7767 0.0259315
308.1172 0.0259315
308.4614 0.0259315
308.8032 0.0259319
309.144 0.0259321
309.4851 0.0259322
309.8263 0.0259328
310.1668 0.0259328
310.5095 0.0259336
310.8499 0.0259341
311.1897 0.0259344
311.5319 0.0259351
311.8744 0.0259358
312.2175 0.0259358
312.5595 0.0259358
312.9013 0.0259358
313.2431 0.0259358
313.5834 0.0259358
313.9236 0.0259361
314.2656 0.0259365
314.6086 0.0259367
314.9506 0.0259367
315.2927 0.0259368
315.632 0.0259368
315.9734 0.0259368
316.7169 0.0259368
317.0589 0.0259367
317.4015 0.0259367
317.7401 0.0259361
318.0828 0.0259355
318.4233 0.0259351
318.7634 0.0259347
319.1052 0.0259345
319.4481 0.025934
319.7869 0.0259333
320.1295 0.0259322
320.4716 0.025932
320.8123 0.025932
321.1523 0.0259306
321.4924 0.02593
321.8343 0.0259294
322.1753 0.0259289
322.5153 0.0259288
322.8573 0.0259287
323.1997 0.0259285
323.5399 0.0259279
323.8819 0.0259279
324.2245 0.0259279
324.5653 0.0259279
324.9073 0.0259279
325.2495 0.0259281
325.5917 0.0259281
325.9346 0.0259283
326.2755 0.0259283
326.6168 0.0259283
326.957 0.0259281
327.298 0.0259279
327.6404 0.0259277
327.9815 0.0259277
328.3237 0.0259279
328.6663 0.0259276
329.0083 0.025927
329.3518 0.0259266
329.6951 0.0259265
330.0379 0.0259266
330.3804 0.025927
330.7215 0.0259276
331.0646 0.0259276
331.4057 0.0259276
331.7479 0.0259276
332.4919 0.025927
332.8342 0.025927
333.1748 0.0259266
333.5153 0.0259265
333.8564 0.0259262
334.198 0.0259259
334.5412 0.0259259
334.8843 0.0259259
335.2262 0.0259252
335.568 0.0259243
335.9076 0.0259237
336.2491 0.0259235
336.5916 0.0259234
336.9315 0.0259234
337.2724 0.0259234
337.6124 0.0259234
337.955 0.0259234
338.2977 0.0259234
338.6392 0.0259234
338.9797 0.0259233
339.3207 0.0259231
339.6628 0.0259231
340.0055 0.0259231
340.3484 0.0259231
340.688 0.0259231
341.0303 0.0259231
341.3724 0.0259231
341.7121 0.0259231
342.0532 0.0259229
342.3957 0.0259225
342.7371 0.0259225
343.0797 0.0259225
343.4203 0.0259225
343.7597 0.0259225
344.1012 0.0259225
344.4418 0.0259223
344.784 0.025922
345.1239 0.0259217
345.4639 0.0259216
345.8047 0.0259213
346.1466 0.0259213
346.4866 0.0259213
346.83 0.0259214
347.172 0.0259218
347.512 0.0259218
348.2558 0.0259218
348.5974 0.0259218
348.9385 0.0259214
349.2813 0.0259206
349.6212 0.0259202
349.9642 0.0259199
350.306 0.0259194
350.6482 0.0259186
350.9902 0.025918
351.3322 0.0259159
351.6731 0.025914
352.0132 0.0259138
352.3534 0.0259127
352.6939 0.025911
353.0354 0.025911
353.3769 0.025911
353.7182 0.025911
354.0596 0.0259107
354.3997 0.0259107
354.7414 0.0259107
355.0835 0.0259107
355.4233 0.0259114
355.7644 0.0259119
356.1094 0.0259126
356.4493 0.025913
356.7913 0.025913
357.1332 0.025913
357.4754 0.0259131
357.8156 0.025913
358.1572 0.025913
358.4974 0.025913
358.8396 0.0259131
359.1822 0.0259131
359.5248 0.0259131
359.867 0.0259131
360.2071 0.0259131
360.5495 0.0259131
360.8906 0.0259132
361.232 0.0259132
361.5746 0.0259132
361.916 0.0259133
362.2585 0.0259133
362.5987 0.0259132
362.9403 0.0259132
363.2815 0.0259132
364.027 0.0259134
364.3671 0.0259134
364.7101 0.0259132
365.0527 0.0259132
365.3933 0.0259132
365.736 0.0259132
366.0782 0.025913
366.4197 0.025913
366.7616 0.0259126
367.1041 0.0259123
367.4447 0.0259102
367.7843 0.0259088
368.1237 0.0259078
368.4648 0.0259078
368.8049 0.0259078
369.1463 0.0259069
369.4883 0.0259063
369.8299 0.0259057
370.1714 0.0259057
370.5119 0.0259057
370.8516 0.0259055
371.1935 0.0259057
371.536 0.0259058
371.8778 0.0259059
372.2195 0.0259063
372.56 0.0259069
372.9001 0.0259074
373.2415 0.025908
373.5816 0.0259084
373.923 0.0259084
374.264 0.025908
374.6042 0.0259073
374.944 0.0259073
375.284 0.0259068
375.6262 0.0259066
375.9684 0.0259068
376.3081 0.0259068
376.6486 0.0259068
376.9894 0.0259071
377.3299 0.0259071
377.672 0.0259071
378.0142 0.0259071
378.3538 0.025907
378.6957 0.0259068
379.0363 0.0259066
379.7799 0.0259064
380.1207 0.0259062
380.4626 0.0259059
380.803 0.0259054
381.1445 0.0259049
381.4854 0.0259045
381.8255 0.0259042
382.165 0.0259042
382.5081 0.0259042
382.8479 0.0259038
383.1873 0.0259017
383.5288 0.0258992
383.8685 0.0258985
384.2099 0.0258981
384.5511 0.0258977
384.8921 0.0258977
385.2334 0.0258977
385.5742 0.0258977
385.9156 0.0258977
386.2575 0.0258977
386.6003 0.0258977
386.9433 0.025898
387.2836 0.0258981
387.6243 0.0258982
387.9668 0.0258983
388.3087 0.0258985
388.6485 0.0258988
388.9904 0.025899
389.3335 0.0258992
389.6766 0.0258992
390.0186 0.0258996
390.3603 0.0259
390.7012 0.0259002
391.0433 0.0259005
391.3859 0.0259007
391.728 0.0259011
392.0701 0.0259013
392.4105 0.0259014
392.7531 0.0259014
393.093 0.0259016
393.4332 0.0259016
393.7734 0.0259015
394.114 0.0259013
394.4566 0.0259013
394.7984 0.0259013
395.5419 0.0259013
395.8836 0.0259013
396.225 0.0259013
396.5677 0.0259011
396.9098 0.0259004
397.2501 0.0258995
397.5911 0.0258991
397.9331 0.0258987
398.2746 0.0258983
398.6174 0.0258975
398.9574 0.025895
399.2979 0.0258927
399.6406 0.0258923
399.9831 0.0258921
400.3252 0.0258921
400.6662 0.0258919
401.0081 0.0258914
401.3482 0.0258909
401.6907 0.0258907
402.0303 0.0258906
402.3696 0.0258903
402.7107 0.0258903
403.053 0.0258906
403.3956 0.0258906
403.7388 0.0258907
404.0808 0.0258907
404.4212 0.0258907
404.7608 0.0258907
405.1033 0.0258907
405.4447 0.0258908
405.7855 0.0258909
406.1256 0.025891
406.4676 0.0258911
406.8084 0.0258911
407.1493 0.0258911
407.4908 0.0258921
407.8324 0.0258932
408.1732 0.0258933
408.5131 0.0258933
408.8538 0.0258934
409.1942 0.0258936
409.5347 0.0258939
409.8752 0.0258941
410.2175 0.0258944
410.5596 0.025895
411.3031 0.0258955
411.6455 0.025895
411.9852 0.025895
412.3254 0.025895
412.6667 0.025895
413.0074 0.0258944
413.3485 0.0258937
413.6889 0.0258933
414.0287 0.0258932
414.371 0.0258932
414.7122 0.0258908
415.052 0.0258884
415.394 0.0258884
415.7337 0.0258884
416.0752 0.0258883
416.4172 0.0258882
416.7583 0.0258879
417.0993 0.0258876
417.4413 0.025887
417.7819 0.0258861
418.1222 0.0258855
418.4623 0.025886
418.804 0.0258863
419.1463 0.0258864
419.4868 0.0258868
419.829 0.0258874
420.1695 0.0258874
420.5083 0.0258874
420.849 0.0258868
421.191 0.0258863
421.5313 0.025886
421.8724 0.0258854
422.212 0.0258848
422.5531 0.0258848
422.8936 0.0258846
423.2338 0.0258846
423.5756 0.0258846
423.9169 0.0258846
424.2581 0.0258849
424.6004 0.0258849
424.9415 0.0258849
425.2816 0.0258849
425.6222 0.0258849
425.9631 0.0258849
426.3053 0.0258849
427.0513 0.0258849
427.3936 0.0258849
427.7357 0.0258849
428.0768 0.0258849
428.4175 0.0258849
428.7574 0.0258849
429.0982 0.0258849
429.4404 0.0258849
429.7806 0.0258847
430.1222 0.0258843
430.4648 0.0258829
430.8073 0.0258825
431.1477 0.0258825
431.488 0.0258815
431.8284 0.0258807
432.1685 0.0258807
432.5105 0.0258807
432.8518 0.0258807
433.1931 0.0258807
433.5355 0.0258807
433.8782 0.0258807
434.218 0.0258811
434.561 0.0258816
434.904 0.0258819
435.2462 0.0258825
435.5873 0.0258831
435.9279 0.0258834
436.268 0.0258839
436.6091 0.0258839
436.9497 0.0258842
437.292 0.0258842
437.6342 0.0258843
437.9747 0.0258845
438.3152 0.0258848
438.6575 0.0258848
438.9979 0.025885
439.3401 0.0258853
439.6819 0.0258856
440.0224 0.0258859
440.3638 0.0258856
440.7038 0.0258854
441.0435 0.0258854
441.3859 0.0258852
441.7263 0.0258852
442.0668 0.0258854
442.8123 0.0258857
443.1534 0.0258857
443.4955 0.0258857
443.8362 0.0258857
444.1775 0.0258854
444.518 0.0258854
444.8576 0.0258851
445.1991 0.0258845
445.5417 0.025884
445.8841 0.025884
446.2239 0.0258834
446.5646 0.0258827
446.9081 0.0258823
447.2499 0.0258815
447.5903 0.0258805
447.9303 0.0258796
448.2725 0.0258788
448.6138 0.0258779
448.9544 0.0258779
449.2968 0.0258779
449.6373 0.0258779
449.9796 0.0258788
450.3203 0.0258792
450.6623 0.0258792
451.0041 0.0258792
451.3469 0.0258796
451.6876 0.0258801
452.0277 0.0258801
452.3692 0.0258798
452.7105 0.0258798
453.0526 0.0258798
453.3926 0.0258794
453.7354 0.0258798
454.0752 0.0258796
454.4154 0.0258797
454.7561 0.0258797
455.0968 0.0258797
455.4393 0.0258797
455.7798 0.0258797
456.1207 0.0258796
456.4625 0.0258794
456.8036 0.0258792
457.144 0.0258789
457.4848 0.0258786
457.8249 0.0258779
458.5692 0.0258773
458.91 0.0258769
459.2522 0.025876
459.592 0.0258751
459.9334 0.0258744
460.2732 0.0258733
460.6152 0.0258723
460.9558 0.025872
461.2961 0.0258713
461.6381 0.0258704
461.9807 0.0258713
462.3232 0.025872
462.6651 0.025872
463.005 0.025872
463.3467 0.0258722
463.6877 0.0258722
464.0308 0.0258722
464.3721 0.0258722
464.711 0.0258722
465.0515 0.0258722
465.3936 0.0258722
465.7356 0.0258724
466.0775 0.0258725
466.4206 0.0258726
466.7633 0.0258727
467.1076 0.025873
467.4481 0.0258732
467.7886 0.0258733
468.1287 0.0258733
468.4716 0.0258733
468.8129 0.0258733
469.1534 0.0258733
469.4946 0.0258733
469.8357 0.0258733
470.1756 0.0258733
470.5163 0.0258732
470.8588 0.0258729
471.1996 0.0258726
471.5415 0.0258722
471.8816 0.0258713
472.2237 0.0258708
472.5638 0.0258705
472.904 0.0258703
473.2458 0.0258698
473.5873 0.0258692
474.3294 0.0258687
474.6714 0.0258682
475.0142 0.0258678
475.356 0.0258674
475.6968 0.0258673
476.0379 0.0258671
476.3804 0.0258671
476.72 0.025867
477.0598 0.0258666
477.4015 0.0258663
477.7415 0.0258663
478.0815 0.0258655
478.4237 0.0258645
478.7659 0.0258645
479.1059 0.0258645
479.4459 0.0258645
479.787 0.0258644
480.1295 0.0258644
480.4701 0.0258644
480.8116 0.0258644
481.1515 0.0258644
481.4941 0.0258646
481.8359 0.0258647
482.1781 0.0258649
482.5204 0.0258651
482.8604 0.0258653
483.2007 0.0258655
483.543 0.0258655
483.8852 0.0258655
484.2258 0.0258655
484.5679 0.0258654
484.9096 0.0258655
485.251 0.0258658
485.5916 0.0258658
485.933 0.0258655
486.2743 0.0258659
486.6147 0.0258659
486.9555 0.0258661
487.2955 0.0258663
487.6373 0.0258663
487.9779 0.0258663
488.3196 0.0258666
488.6603 0.0258661
489.0014 0.0258661
489.3432 0.025866
490.0867 0.025866
490.428 0.025866
490.7679 0.025866
491.1084 0.025866
491.4507 0.025866
491.7909 0.025866
492.1306 0.0258656
492.472 0.0258648
492.8125 0.0258648
493.1539 0.0258642
493.4971 0.0258622
493.8386 0.0258608
494.1792 0.02586
494.52 0.02586
494.862 0.0258595
495.2045 0.0258592
495.5454 0.0258592
495.8874 0.0258592
496.2279 0.0258592
496.5705 0.0258592
496.9099 0.0258592
497.2502 0.0258592
497.5908 0.0258592
497.9334 0.0258593
498.2768 0.0258594
498.6167 0.0258596
498.9578 0.02586
499.3005 0.0258603
499.6422 0.0258603
499.984 0.0258603
500.3237 0.02586
500.6655 0.0258597
501.0079 0.0258597
501.3485 0.0258597
501.6892 0.02586
502.031 0.0258601
502.3716 0.02586
502.7129 0.0258597
503.0521 0.0258595
503.3942 0.0258595
503.7357 0.0258593
504.0753 0.0258588
504.4174 0.0258593
504.7596 0.0258585
505.0999 0.0258577
505.8436 0.0258572
506.1855 0.0258567
506.5268 0.0258563
506.8684 0.0258558
507.2098 0.0258549
507.552 0.025854
507.8947 0.025854
508.2367 0.025854
508.5769 0.025854
508.9191 0.025854
509.2615 0.025854
509.6019 0.025854
509.9444 0.0258544
510.285 0.0258545
510.6258 0.0258546
510.9661 0.025855
511.3073 0.0258554
511.6464 0.0258554
511.9859 0.0258554
512.3281 0.0258554
512.6702 0.0258554
513.0095 0.0258554
513.3509 0.0258555
513.6916 0.0258556
514.0351 0.0258556
514.3779 0.0258557
514.7204 0.0258556
515.0618 0.0258556
515.4046 0.0258555
515.747 0.0258555
516.0889 0.0258554
516.4305 0.0258551
516.7736 0.0258551
517.1144 0.0258552
517.457 0.0258556
517.8004 0.0258556
518.143 0.0258552
518.4849 0.0258552
518.8247 0.0258546
519.1655 0.0258543
519.508 0.0258543
519.8499 0.0258543
520.1906 0.0258541
520.5302 0.0258538
520.8725 0.0258535
521.6148 0.0258534
521.9569 0.0258531
522.297 0.0258528
522.6396 0.0258528
522.9796 0.0258525
523.3179 0.0258524
523.6598 0.0258524
524.0004 0.0258522
524.3401 0.0258515
524.68 0.0258501
525.0222 0.025848
525.3614 0.025848
525.7036 0.025847
526.046 0.025847
526.3875 0.025847
526.7294 0.025847
527.0703 0.025847
527.4139 0.025847
527.7566 0.0258467
528.0992 0.0258465
528.4418 0.0258465
528.7866 0.0258467
529.1295 0.025847
529.4713 0.0258476
529.8129 0.0258482
530.1538 0.0258491
530.4935 0.0258491
530.8353 0.0258496
531.1778 0.0258496
531.5196 0.02585
531.8613 0.0258503
532.2035 0.0258503
532.5437 0.0258509
532.8859 0.0258513
533.2281 0.0258513
533.5678 0.0258515
533.9074 0.0258515
534.2494 0.025852
534.5929 0.0258529
534.9352 0.0258535
535.2752 0.0258535
535.6174 0.0258535
535.9563 0.0258536
536.2983 0.0258536
536.6405 0.0258536
537.3842 0.0258537
537.7262 0.0258537
538.0676 0.0258537
538.4098 0.0258537
538.7512 0.0258537
539.0931 0.0258537
539.4328 0.0258537
539.7722 0.0258535
540.115 0.0258532
540.4575 0.0258523
540.7996 0.0258514
541.1401 0.0258512
541.4804 0.0258507
541.8209 0.0258507
542.1611 0.0258498
542.5019 0.025849
542.8431 0.0258487
543.1851 0.0258487
543.5257 0.0258487
543.8681 0.0258487
544.208 0.0258487
544.5487 0.025849
544.8912 0.0258497
545.2334 0.0258502
545.5753 0.0258502
545.9172 0.0258504
546.2591 0.0258506
546.5996 0.0258509
546.9396 0.0258511
547.2798 0.0258511
547.622 0.0258509
547.9614 0.0258507
548.3024 0.0258507
548.6443 0.0258507
548.9874 0.0258507
549.3311 0.0258507
549.6733 0.025851
550.0127 0.0258511
550.3547 0.0258511
550.6981 0.0258511
551.0404 0.025851
551.3805 0.025851
551.7207 0.0258508
552.0614 0.025851
552.4036 0.025851
553.1476 0.025851
553.4876 0.0258508
553.8308 0.0258506
554.1714 0.0258501
554.5134 0.0258501
554.8554 0.0258501
555.1996 0.0258498
555.5409 0.0258493
555.8801 0.0258487
556.2207 0.0258487
556.5628 0.0258466
556.9049 0.0258443
557.2478 0.0258443
557.5895 0.0258443
557.9307 0.025844
558.2729 0.0258435
558.6154 0.0258435
558.9558 0.0258435
559.2983 0.0258431
559.6395 0.0258431
559.9814 0.0258431
560.322 0.0258432
560.6612 0.0258432
561.0022 0.0258432
561.3436 0.0258435
561.6837 0.0258438
562.0244 0.025844
562.3658 0.025844
562.7059 0.0258445
563.0482 0.0258453
563.3895 0.0258455
563.7307 0.0258455
564.0707 0.0258453
564.413 0.025845
564.7532 0.0258453
565.0936 0.0258455
565.4343 0.0258455
565.7768 0.0258453
566.1184 0.0258455
566.4588 0.0258455
566.799 0.0258456
567.1396 0.0258456
567.4809 0.0258456
567.8224 0.0258459
568.163 0.0258462
568.9076 0.0258465
569.2531 0.0258462
569.5954 0.0258459
569.9371 0.0258456
570.276 0.0258453
570.6167 0.0258449
570.9588 0.0258449
571.3013 0.0258449
571.6419 0.0258445
571.9819 0.0258438
572.3217 0.0258425
572.6643 0.0258406
573.007 0.0258396
573.3485 0.025839
573.6895 0.0258386
574.0324 0.0258386
574.3746 0.0258386
574.7142 0.0258386
575.0545 0.0258386
575.3958 0.0258386
575.7376 0.0258386
576.0778 0.0258386
576.4176 0.0258386
576.7607 0.0258386
577.1027 0.0258386
577.4436 0.0258387
577.7833 0.0258387
578.1235 0.0258388
578.4653 0.0258387
578.8055 0.0258388
579.1455 0.0258389
579.4873 0.0258389
579.8294 0.025839
580.1686 0.0258392
580.5095 0.0258394
580.8505 0.0258394
581.1913 0.0258394
581.533 0.0258394
581.8735 0.0258398
582.2157 0.0258402
582.5579 0.0258404
582.8986 0.0258407
583.2404 0.0258407
583.5822 0.0258409
583.923 0.0258409
584.6659 0.0258409
585.0116 0.0258409
585.3524 0.0258409
585.6942 0.0258409
586.0359 0.0258409
586.3759 0.0258409
586.7175 0.0258409
587.0588 0.0258402
587.3996 0.0258394
587.74 0.0258392
588.081 0.0258377
588.4213 0.0258353
588.7645 0.0258349
589.104 0.0258344
589.4441 0.0258344
589.7845 0.0258344
590.1259 0.0258343
590.4687 0.0258343
590.8095 0.0258343
591.1502 0.0258343
591.4924 0.0258343
591.8311 0.0258343
592.1735 0.0258344
592.515 0.0258346
592.8567 0.025835
593.1984 0.0258351
593.5385 0.0258353
593.8814 0.0258355
594.2236 0.0258355
594.5639 0.0258353
594.9064 0.0258353
595.2491 0.0258353
595.5891 0.0258351
595.9281 0.0258351
596.2699 0.025835
596.6105 0.0258348
596.9525 0.0258348
597.2933 0.0258345
597.6323 0.0258345
597.9753 0.0258342
598.3179 0.0258336
598.6562 0.0258336
598.9982 0.0258335
599.3403 0.0258335
599.6819 0.0258335
600.424 0.0258335
600.764 0.025833
601.1043 0.0258329
601.4454 0.0258328
601.786 0.0258327
602.1284 0.0258325
602.471 0.0258316
602.8117 0.0258316
603.1517 0.0258316
603.4933 0.0258311
603.8355 0.0258314
604.1776 0.0258314
604.5182 0.0258316
604.8593 0.0258316
605.2 0.0258316
605.5411 0.0258316
605.8836 0.0258313
606.2256 0.0258311
606.5658 0.0258304
606.9067 0.0258296
607.2489 0.0258296
607.5914 0.0258303
607.9343 0.0258309
608.276 0.0258309
608.6168 0.0258309
608.9585 0.0258309
609.3014 0.0258306
609.6428 0.0258306
609.985 0.0258306
610.328 0.0258306
610.6702 0.0258306
611.0111 0.0258308
611.3514 0.0258308
611.6913 0.0258308
612.0326 0.0258308
612.3727 0.025831
612.7134 0.0258311
613.0544 0.0258311
613.3947 0.0258311
613.7371 0.0258314
614.0793 0.0258315
614.4192 0.0258318
614.7604 0.0258318
615.1029 0.0258318
615.4445 0.0258321
616.1878 0.0258323
616.5299 0.0258323
616.8726 0.0258323
617.2129 0.0258323
617.5531 0.0258321
617.8939 0.0258318
618.2358 0.0258315
618.5763 0.0258311
618.9168 0.025831
619.2595 0.0258305
619.6022 0.0258272
619.9432 0.025824
620.2836 0.0258235
620.6249 0.0258233
620.968 0.0258233
621.3099 0.0258233
621.6507 0.025823
621.9912 0.0258226
622.3316 0.0258224
622.6735 0.0258223
623.0142 0.0258223
623.3571 0.0258223
623.6994 0.0258224
624.0397 0.0258224
624.3807 0.0258224
624.7229 0.0258223
625.063 0.0258223
625.4047 0.0258223
625.7462 0.0258223
626.0864 0.0258223
626.4288 0.0258225
626.7686 0.0258225
627.1087 0.0258227
627.4514 0.0258228
627.7927 0.0258228
628.1335 0.0258228
628.4737 0.0258229
628.8138 0.0258233
629.156 0.0258239
629.4982 0.025824
629.8381 0.025824
630.1786 0.0258241
630.5198 0.0258241
630.8618 0.0258241
631.2019 0.0258241
631.9459 0.0258241
632.2864 0.0258241
632.6288 0.025824
632.971 0.0258238
633.3138 0.0258238
633.6563 0.0258238
633.9965 0.0258238
634.339 0.0258231
634.6797 0.0258223
635.0213 0.0258219
635.3633 0.0258208
635.7045 0.0258204
636.0441 0.0258197
636.3845 0.0258197
636.7261 0.0258194
637.0686 0.0258194
637.4099 0.0258194
637.7512 0.0258192
638.0915 0.0258188
638.432 0.0258186
638.7738 0.0258181
639.1155 0.0258181
639.4563 0.0258181
639.7979 0.0258181
640.1397 0.0258182
640.4806 0.0258182
640.8202 0.0258179
641.161 0.0258179
641.5046 0.0258179
641.847 0.0258179
642.1893 0.0258179
642.5293 0.0258179
642.8698 0.0258179
643.212 0.0258179
643.553 0.0258179
643.8947 0.0258179
644.2359 0.0258179
644.576 0.025818
644.9182 0.0258182
645.26 0.0258184
645.6013 0.0258186
645.9434 0.0258187
646.2837 0.025819
646.6253 0.0258196
646.9684 0.02582
647.7122 0.0258201
648.0531 0.0258201
648.3941 0.02582
648.7349 0.02582
649.077 0.02582
649.4175 0.02582
649.7586 0.02582
650.1006 0.02582
650.4426 0.0258196
650.7855 0.0258192
651.1255 0.0258163
651.4665 0.0258145
651.809 0.0258145
652.1476 0.0258145
652.4898 0.0258145
652.8294 0.0258145
653.1721 0.0258144
653.5113 0.0258144
653.8529 0.0258144
654.1959 0.0258142
654.5371 0.0258142
654.8788 0.0258143
655.2206 0.0258145
655.5622 0.0258145
655.904 0.0258145
656.2435 0.0258145
656.5852 0.0258145
656.9258 0.0258146
657.2664 0.0258148
657.6088 0.0258151
657.9512 0.0258154
658.2906 0.0258156
658.6324 0.0258156
658.9724 0.0258156
659.3132 0.0258156
659.6538 0.0258156
659.9947 0.0258156
660.3366 0.0258156
660.6781 0.0258156
661.0211 0.0258156
661.3606 0.0258156
661.7018 0.0258152
662.0417 0.0258152
662.3841 0.0258152
662.7255 0.0258152
663.4706 0.0258152
663.8125 0.025814
664.1545 0.0258131
664.4957 0.025813
664.8373 0.0258125
665.18 0.0258119
665.52 0.0258115
665.8618 0.0258112
666.2041 0.0258104
666.5463 0.0258091
666.8873 0.0258082
667.2276 0.0258082
667.57 0.0258082
667.913 0.0258082
668.2553 0.0258081
668.5952 0.025808
668.9375 0.0258079
669.2801 0.0258079
669.6207 0.025808
669.9599 0.0258081
670.3008 0.0258081
670.6452 0.0258083
670.9873 0.0258084
671.3275 0.0258085
671.6674 0.0258085
672.0099 0.0258085
672.3511 0.0258085
672.6935 0.0258087
673.0357 0.0258092
673.376 0.0258094
673.7167 0.0258095
674.0567 0.0258098
674.3969 0.0258102
674.7382 0.0258102
675.0782 0.0258102
675.4166 0.0258102
675.7574 0.0258103
676.0988 0.0258104
676.4394 0.0258106
676.7815 0.0258106
677.1243 0.0258107
677.4637 0.0258106
677.804 0.0258106
678.1487 0.0258104
678.4883 0.0258106
679.2323 0.0258106
679.572 0.0258106
679.9136 0.0258105
680.2553 0.0258102
680.5973 0.0258097
680.939 0.0258088
681.2796 0.0258082
681.62 0.025808
681.9622 0.0258079
682.3044 0.025808
682.6472 0.025808
682.9888 0.0258079
683.3304 0.0258076
683.672 0.0258071
684.0135 0.0258067
684.3562 0.0258067
684.6985 0.0258067
685.0391 0.0258067
685.3808 0.0258067
685.7226 0.0258067
686.0644 0.0258067
686.4055 0.0258071
686.7443 0.0258071
687.0862 0.0258076
687.4284 0.0258082
687.7695 0.0258082
688.11 0.0258082
688.4528 0.0258088
688.7952 0.0258093
689.1378 0.0258093
689.4803 0.0258094
689.8197 0.0258095
690.1619 0.0258096
690.505 0.0258098
690.8478 0.0258099
691.1902 0.0258099
691.5304 0.02581
691.8702 0.0258101
692.2102 0.0258101
692.552 0.0258102
692.8935 0.0258105
693.2351 0.0258109
693.5748 0.0258111
693.9166 0.0258112
694.2586 0.0258115
695.0025 0.0258116
695.3423 0.0258116
695.6843 0.0258116
696.0266 0.0258116
696.3685 0.0258115
696.7082 0.0258115
697.0496 0.0258114
697.3904 0.0258111
697.731 0.0258111
698.0716 0.0258109
698.4136 0.0258068
698.757 0.0258027
699.1003 0.0258022
699.443 0.0258017
699.7844 0.0258009
