69.35845 0.0262464
69.69995 0.0262463
70.04186 0.0262461
70.38411 0.0262446
70.72604 0.0262431
71.07022 0.0262431
71.41383 0.0262431
71.75675 0.0262415
72.09989 0.0262396
72.44344 0.026239
72.7864 0.0262384
73.12954 0.0262378
73.47147 0.0262376
73.81498 0.0262371
74.1577 0.0262362
74.5005 0.0262349
74.84324 0.0262339
75.18464 0.0262333
75.52722 0.0262333
75.86764 0.0262333
76.20976 0.0262327
76.55287 0.0262316
76.89459 0.0262316
77.23576 0.0262312
77.57697 0.0262305
77.91966 0.02623
78.26092 0.0262298
78.6028 0.0262289
78.94407 0.0262281
79.68965 0.0262279
80.03149 0.0262275
80.37572 0.0262266
80.72084 0.0262242
81.06161 0.0262222
81.40201 0.0262217
81.74676 0.0262207
82.08775 0.0262199
82.4315 0.0262193
82.77336 0.0262186
83.12004 0.0262132
83.46441 0.0262094
83.80777 0.0262081
84.15332 0.0262081
84.49576 0.0262078
84.83881 0.0262075
85.18174 0.0262075
85.52355 0.0262074
85.86691 0.0262069
86.20904 0.0262063
86.55023 0.0262062
86.89077 0.0262062
87.23354 0.0262062
87.57577 0.0262062
87.91795 0.0262062
88.25835 0.0262062
88.60156 0.0262062
88.94376 0.0262056
89.28333 0.0262045
89.62701 0.0262038
89.96991 0.0262035
90.31291 0.0262031
90.65463 0.0262031
90.99813 0.0262031
91.34107 0.0262025
91.68472 0.0262019
92.02775 0.0262015
92.36888 0.0262012
92.71055 0.0262006
93.05122 0.0261999
93.39218 0.0261998
93.7347 0.0261994
94.07791 0.0261986
94.41924 0.0261978
94.75972 0.026197
95.50628 0.0261953
95.84918 0.0261933
96.19139 0.026192
96.53404 0.0261912
96.87828 0.0261903
97.22078 0.0261895
97.56405 0.0261887
97.90628 0.0261881
98.25137 0.0261879
98.59391 0.0261877
98.9362 0.0261829
99.27888 0.026177
99.62002 0.0261757
99.96589 0.0261752
100.3072 0.0261751
100.6509 0.0261749
100.9973 0.0261742
101.3379 0.0261731
101.6789 0.0261731
102.0205 0.0261724
102.3631 0.0261721
102.7046 0.0261721
103.0481 0.0261721
103.3899 0.0261721
103.7298 0.0261721
104.0722 0.0261721
104.4167 0.0261716
104.7587 0.0261709
105.1026 0.0261707
105.443 0.0261706
105.7858 0.0261703
106.1286 0.0261699
106.4711 0.0261692
106.8146 0.0261683
107.1572 0.0261682
107.5026 0.0261678
107.8469 0.0261678
108.1904 0.0261666
108.5321 0.026165
108.8733 0.026164
109.2158 0.0261639
109.5579 0.0261636
109.8993 0.0261631
110.2427 0.0261628
110.5858 0.0261627
111.3314 0.0261624
111.6726 0.0261621
112.0134 0.026161
112.3543 0.0261602
112.6972 0.0261599
113.0405 0.0261594
113.3838 0.026159
113.7245 0.0261589
114.0657 0.0261584
114.4085 0.0261575
114.7498 0.0261539
115.0919 0.0261514
115.435 0.0261514
115.7774 0.0261509
116.1202 0.0261509
116.4646 0.0261509
116.8075 0.0261509
117.1509 0.0261505
117.4942 0.0261505
117.8366 0.0261505
118.1797 0.0261503
118.5223 0.0261503
118.8674 0.0261503
119.2112 0.0261503
119.5518 0.0261503
119.8918 0.0261503
120.2354 0.0261503
120.5787 0.0261503
120.9214 0.0261499
121.2674 0.0261482
121.6109 0.0261466
121.9526 0.0261444
122.295 0.0261417
122.6357 0.0261408
122.9766 0.0261406
123.3197 0.0261402
123.6621 0.0261402
124.0044 0.0261397
124.3463 0.0261393
124.688 0.0261393
125.0316 0.0261393
125.3737 0.026139
125.7158 0.0261389
126.0577 0.026139
126.4005 0.026139
127.1441 0.0261389
127.4863 0.0261388
127.8278 0.0261386
128.1681 0.0261386
128.5096 0.0261386
128.8525 0.0261384
129.195 0.0261381
129.5375 0.0261381
129.8779 0.0261377
130.2183 0.0261369
130.5594 0.0261325
130.9026 0.026129
131.2454 0.0261282
131.5884 0.0261276
131.9311 0.0261274
132.2731 0.0261265
132.615 0.0261261
132.9583 0.0261255
133.3019 0.0261254
133.6472 0.0261252
133.9903 0.026125
134.3335 0.026125
134.6756 0.026125
135.0175 0.026125
135.3583 0.026125
135.6996 0.0261249
136.0428 0.0261246
136.3841 0.0261244
136.7268 0.0261238
137.0684 0.0261224
137.4115 0.0261212
137.7535 0.026121
138.0954 0.026121
138.4374 0.0261209
138.7806 0.0261206
139.1226 0.0261202
139.4662 0.0261199
139.8088 0.0261197
140.1507 0.0261194
140.4937 0.0261192
140.8372 0.0261182
141.1815 0.026116
141.5229 0.0261136
141.8659 0.0261111
142.2067 0.0261094
142.9521 0.0261086
143.2956 0.0261079
143.6383 0.0261053
143.9798 0.026103
144.3205 0.0261025
144.6627 0.0261017
145.0031 0.0261013
145.3441 0.0261008
145.6869 0.0261003
146.0307 0.0260987
146.3715 0.0260929
146.7145 0.0260882
147.0569 0.0260882
147.4005 0.0260882
147.7435 0.0260882
148.0851 0.0260882
148.4278 0.0260882
148.7703 0.0260882
149.1131 0.0260882
149.4552 0.0260882
149.7996 0.0260882
150.1404 0.0260885
150.4831 0.026089
150.8235 0.0260904
151.1688 0.0260917
151.5098 0.026092
151.8557 0.0260925
152.2001 0.026093
152.5416 0.0260933
152.882 0.0260933
153.2237 0.0260933
153.5668 0.0260933
153.9096 0.0260933
154.2531 0.0260933
154.594 0.0260933
154.9358 0.0260933
155.2788 0.0260936
155.6209 0.0260938
155.9645 0.026094
156.3059 0.0260941
156.647 0.0260941
156.9871 0.0260941
157.3284 0.0260946
157.6734 0.0260946
158.0184 0.026095
158.7626 0.0260946
159.1036 0.0260942
159.4444 0.0260942
159.7863 0.0260941
160.1289 0.0260941
160.4717 0.0260941
160.8144 0.0260941
161.1557 0.0260941
161.4987 0.0260941
161.8388 0.0260941
162.1819 0.0260903
162.5229 0.0260863
162.8656 0.0260858
163.2059 0.0260849
163.5497 0.0260842
163.8903 0.0260837
164.2336 0.0260828
164.5749 0.0260822
164.9188 0.0260822
165.2637 0.0260815
165.6063 0.0260815
165.9459 0.0260822
166.2865 0.0260822
166.6296 0.0260822
166.9706 0.026082
167.3136 0.0260818
167.6545 0.0260814
167.9962 0.026081
168.3364 0.026081
168.6771 0.0260809
169.0222 0.0260807
169.3641 0.0260806
169.7068 0.0260804
170.0488 0.0260804
170.3904 0.0260802
170.7341 0.0260802
171.0751 0.0260798
171.4162 0.0260796
171.7564 0.0260789
172.098 0.0260781
172.439 0.0260776
172.7813 0.0260769
173.1236 0.0260763
173.4668 0.0260753
173.8077 0.0260747
174.5533 0.0260743
174.8958 0.0260737
175.2379 0.0260733
175.5801 0.0260732
175.9214 0.026073
176.2629 0.0260727
176.603 0.0260725
176.9432 0.0260719
177.2881 0.0260713
177.6311 0.0260701
177.9749 0.0260689
178.3183 0.0260682
178.6584 0.0260677
178.9986 0.0260677
179.3401 0.0260674
179.6832 0.0260664
180.0255 0.0260658
180.3681 0.0260656
180.7099 0.0260656
181.0515 0.0260653
181.3937 0.026065
181.7361 0.0260651
182.0787 0.0260651
182.4213 0.0260651
182.766 0.0260651
183.1086 0.0260653
183.4518 0.0260656
183.7929 0.0260658
184.1391 0.0260658
184.4819 0.0260658
184.8231 0.0260658
185.1643 0.0260657
185.5076 0.0260653
185.8513 0.026065
186.1932 0.026065
186.5356 0.026065
186.8781 0.026065
187.2211 0.026065
187.5627 0.0260649
187.9053 0.0260649
188.2478 0.0260649
188.5895 0.0260646
188.934 0.0260642
189.276 0.0260638
189.6195 0.0260636
190.365 0.0260634
190.7064 0.0260626
191.0492 0.0260618
191.3902 0.0260617
191.7318 0.0260613
192.0716 0.0260607
192.4126 0.0260597
192.7548 0.0260589
193.0958 0.0260588
193.4379 0.0260579
193.7796 0.0260539
194.1207 0.0260499
194.4656 0.026049
194.8085 0.0260488
195.15 0.0260484
195.4922 0.0260479
195.8353 0.0260479
196.1761 0.0260479
196.5203 0.0260479
196.8623 0.0260479
197.2021 0.0260479
197.5426 0.0260479
197.8865 0.0260479
198.2299 0.0260479
198.5725 0.0260479
198.9168 0.0260479
199.2592 0.0260479
199.6012 0.0260479
199.9419 0.0260477
200.2823 0.0260474
200.6223 0.0260469
200.9652 0.0260462
201.3059 0.0260459
201.648 0.0260456
201.9906 0.0260452
202.3334 0.0260452
202.6743 0.0260452
203.0132 0.0260452
203.3602 0.0260452
203.7019 0.0260452
204.0445 0.0260452
204.386 0.0260455
204.7286 0.0260448
205.0716 0.0260448
205.4125 0.0260448
206.1569 0.0260442
206.4983 0.0260438
206.8394 0.0260436
207.1849 0.0260434
207.5263 0.0260434
207.8709 0.0260434
208.2139 0.0260434
208.5557 0.0260431
208.8973 0.0260423
209.2397 0.0260411
209.5836 0.0260402
209.9263 0.0260396
210.2695 0.0260392
210.6122 0.0260386
210.9552 0.0260376
211.2957 0.0260368
211.6378 0.0260364
211.9795 0.0260364
212.3222 0.0260364
212.665 0.0260364
213.0049 0.0260364
213.3463 0.0260368
213.6885 0.0260376
214.0321 0.0260386
214.3739 0.0260392
214.719 0.0260392
215.0598 0.0260392
215.4015 0.0260392
215.7421 0.0260394
216.0857 0.0260397
216.4256 0.0260397
216.7671 0.0260397
217.1087 0.0260397
217.4516 0.0260397
217.7952 0.0260397
218.1419 0.0260397
218.4826 0.0260397
218.8266 0.0260391
219.1695 0.0260386
219.5116 0.0260385
219.8542 0.0260378
220.1975 0.026037
220.5379 0.026037
220.8798 0.0260369
221.2224 0.0260367
221.9687 0.0260351
222.3112 0.0260335
222.6525 0.0260332
222.9939 0.0260328
223.335 0.0260323
223.6756 0.0260321
224.0219 0.0260316
224.3618 0.0260308
224.7024 0.0260301
225.0451 0.0260292
225.386 0.0260234
225.7267 0.0260181
226.0728 0.0260173
226.4138 0.0260173
226.7547 0.0260173
227.0953 0.0260173
227.4361 0.0260173
227.7775 0.0260166
228.1213 0.0260161
228.4628 0.0260159
228.8033 0.0260158
229.1441 0.0260158
229.4863 0.0260159
229.8287 0.0260161
230.1707 0.0260161
230.5153 0.0260161
230.858 0.0260166
231.2002 0.0260173
231.5432 0.0260181
231.8843 0.0260183
232.2273 0.0260185
232.5684 0.0260187
232.9365 0.026019
233.2808 0.0260205
233.6221 0.0260222
233.963 0.026023
234.3077 0.0260232
234.6527 0.0260232
234.9956 0.0260232
235.3359 0.0260232
235.6768 0.0260232
236.0214 0.0260233
236.3633 0.0260233
236.7044 0.0260233
237.0454 0.0260233
237.7897 0.0260232
238.1316 0.0260232
238.4734 0.0260232
238.8149 0.026023
239.1562 0.0260223
239.4959 0.0260216
239.8388 0.0260212
240.181 0.026021
240.5225 0.0260202
240.8622 0.026019
241.2032 0.0260167
241.5457 0.026014
241.8858 0.0260123
242.2257 0.0260105
242.5656 0.0260093
242.9064 0.0260079
243.2481 0.0260064
243.5924 0.0260056
243.9353 0.0260056
244.2775 0.0260051
244.6189 0.0260051
244.9621 0.0260051
245.3066 0.0260051
245.6461 0.0260053
245.9869 0.0260057
246.3286 0.0260057
246.6702 0.0260057
247.0115 0.0260053
247.3518 0.0260053
247.6925 0.026005
248.0341 0.026005
248.3785 0.026005
248.7188 0.026005
249.0584 0.026005
249.4011 0.026005
249.7436 0.0260051
250.086 0.026005
250.4268 0.0260049
250.7693 0.0260047
251.1136 0.0260048
251.4551 0.0260049
251.7972 0.0260051
252.1374 0.0260051
252.4796 0.0260051
252.8203 0.026005
253.5632 0.0260051
253.9046 0.0260051
254.2452 0.0260051
254.5872 0.026005
254.9274 0.026005
255.2681 0.0260049
255.6102 0.0260048
255.9502 0.0260047
256.292 0.0260038
256.6337 0.0260029
256.9764 0.0260029
257.3155 0.0260022
257.6576 0.0260012
257.997 0.0260019
258.3394 0.0260007
258.6804 0.0260007
259.0206 0.0260007
259.3604 0.0260007
259.7018 0.0260007
260.0412 0.0260004
260.3814 0.026
260.7274 0.026
261.0693 0.026
261.411 0.026
261.7537 0.026
262.0945 0.026
262.4361 0.026
262.7761 0.0259999
263.1186 0.0259988
263.4602 0.0259982
263.8009 0.0259979
264.1432 0.0259978
264.4837 0.0259976
264.8256 0.0259966
265.1671 0.0259966
265.5105 0.0259966
265.8533 0.0259966
266.1956 0.0259966
266.5377 0.0259957
266.8821 0.0259955
267.2218 0.0259955
267.5635 0.0259955
267.9035 0.0259955
268.2452 0.0259956
268.5858 0.0259956
269.3331 0.0259956
269.6737 0.0259956
270.0166 0.0259956
270.3589 0.0259956
270.7018 0.0259955
271.0446 0.0259955
271.386 0.0259955
271.7303 0.0259955
272.0741 0.0259955
272.4167 0.0259947
272.7604 0.0259925
273.1021 0.0259904
273.4461 0.0259898
273.7878 0.0259895
274.1305 0.0259892
274.4742 0.025989
274.8177 0.0259886
275.1581 0.0259886
275.5002 0.0259886
275.8411 0.0259879
276.183 0.0259873
276.5232 0.0259873
276.866 0.0259873
277.2066 0.0259873
277.5484 0.0259873
277.8877 0.0259871
278.233 0.025987
278.5738 0.025987
278.9152 0.0259868
279.256 0.0259868
279.6007 0.0259868
279.9422 0.0259869
280.283 0.0259867
280.6239 0.0259867
280.964 0.0259866
281.3061 0.0259866
281.6485 0.0259867
281.9905 0.0259864
282.3303 0.025986
282.6724 0.025986
283.015 0.025986
283.3545 0.0259857
283.6946 0.0259857
284.0348 0.0259853
284.3759 0.0259852
285.1207 0.025985
285.4611 0.025985
285.8023 0.0259842
286.145 0.0259834
286.4872 0.025983
286.8278 0.0259827
287.1687 0.0259827
287.5109 0.0259819
287.8556 0.0259811
288.198 0.0259807
288.5421 0.0259803
288.8821 0.0259803
289.2227 0.0259803
289.567 0.0259803
289.9098 0.0259803
290.2501 0.0259803
290.5915 0.0259803
290.9321 0.0259794
291.2743 0.0259794
291.6164 0.0259794
291.9567 0.0259794
292.2991 0.0259808
292.6414 0.0259817
292.983 0.0259825
293.3244 0.0259831
293.6666 0.0259832
294.0095 0.0259832
294.351 0.0259832
294.6914 0.0259832
295.0349 0.0259832
295.3764 0.0259832
295.7196 0.0259832
296.06 0.0259832
296.4003 0.0259831
296.7402 0.0259824
297.0818 0.0259813
297.4219 0.0259805
297.764 0.0259805
298.1059 0.02598
298.4463 0.0259795
298.7878 0.0259788
299.1284 0.0259784
299.4693 0.0259784
299.8105 0.0259781
300.1501 0.0259781
300.8945 0.0259781
301.2352 0.0259773
301.5761 0.0259765
301.9163 0.0259761
302.2566 0.0259751
302.5976 0.0259742
302.9385 0.0259742
303.2791 0.0259742
303.6204 0.0259744
303.9599 0.0259744
304.3038 0.0259745
304.6434 0.0259745
304.9834 0.0259746
305.3245 0.0259748
305.665 0.0259749
306.0067 0.0259749
306.3471 0.0259749
306.6905 0.0259749
307.0351 0.0259749
307.3778 0.0259749
307.7182 0.0259749
308.0605 0.0259749
308.4026 0.0259752
308.7426 0.0259758
309.084 0.0259762
309.4245 0.0259764
309.7646 0.0259764
310.1067 0.0259764
310.446 0.0259764
310.786 0.0259764
311.128 0.0259764
311.4679 0.0259765
311.81 0.0259765
312.1523 0.0259765
312.5346 0.0259764
312.8751 0.0259764
313.2146 0.025976
313.5581 0.0259753
313.9003 0.0259748
314.2432 0.0259748
314.5861 0.0259748
314.9274 0.0259753
315.2679 0.0259753
315.6104 0.0259753
315.9542 0.0259753
316.699 0.0259753
317.0378 0.0259748
317.3794 0.0259741
317.7233 0.0259735
318.0641 0.025973
318.4066 0.0259723
318.751 0.0259717
319.0927 0.0259709
319.4336 0.0259699
319.78 0.025971
320.1216 0.0259719
320.4617 0.025971
320.8045 0.025971
321.1465 0.02597
321.4896 0.0259699
321.832 0.0259694
322.1745 0.025969
322.5148 0.025969
322.8556 0.025969
323.1978 0.025969
323.5377 0.025969
323.8779 0.0259691
324.2192 0.0259694
324.5608 0.0259699
324.9032 0.0259699
325.2445 0.02597
325.5838 0.0259701
325.9252 0.0259701
326.2665 0.0259708
326.6062 0.0259708
326.9481 0.0259708
327.2897 0.0259712
327.6316 0.0259712
327.9753 0.0259712
328.3158 0.0259715
328.6555 0.0259715
328.998 0.0259715
329.3402 0.0259715
329.6827 0.0259715
330.0227 0.0259712
330.3612 0.0259711
330.7034 0.0259711
331.0461 0.025971
331.3884 0.0259707
331.7297 0.0259707
332.4735 0.02597
332.8143 0.0259694
333.1556 0.0259691
333.4952 0.0259689
333.8396 0.0259677
334.1801 0.0259656
334.5251 0.0259646
334.8661 0.0259644
335.2061 0.0259641
335.5469 0.0259639
335.8882 0.025961
336.2282 0.0259581
336.5682 0.0259581
336.9091 0.0259581
337.2515 0.0259579
337.592 0.0259579
337.9351 0.0259579
338.2782 0.0259576
338.6196 0.0259576
338.9603 0.0259576
339.3026 0.0259576
339.6467 0.0259576
339.9868 0.0259579
340.3275 0.0259581
340.6671 0.0259584
341.0075 0.0259587
341.3498 0.0259591
341.6898 0.0259595
342.031 0.0259596
342.3722 0.0259598
342.7127 0.02596
343.0543 0.0259601
343.3949 0.0259602
343.7382 0.0259604
344.0805 0.0259606
344.42 0.0259604
344.7633 0.0259606
345.1035 0.0259607
345.4458 0.0259609
345.7887 0.0259611
346.1298 0.0259613
346.472 0.0259615
346.8143 0.0259617
347.1547 0.0259617
347.4945 0.0259614
348.2379 0.0259614
348.5778 0.0259612
348.9184 0.0259609
349.2601 0.0259609
349.603 0.0259607
349.9433 0.0259607
350.2848 0.02596
350.6269 0.0259594
350.9683 0.0259592
351.3106 0.0259572
351.6549 0.0259538
351.9956 0.0259516
352.3377 0.0259516
352.6807 0.0259516
353.0226 0.0259516
353.3642 0.0259516
353.7057 0.0259516
354.0461 0.0259514
354.3871 0.0259514
354.7279 0.0259514
355.0682 0.0259509
355.4094 0.0259514
355.7494 0.0259519
356.0921 0.0259521
356.4341 0.0259523
356.7764 0.0259528
357.1185 0.0259534
357.459 0.0259534
357.7991 0.0259534
358.1391 0.0259534
358.4797 0.0259534
358.822 0.0259535
359.1618 0.0259535
359.504 0.0259535
359.8458 0.0259534
360.1883 0.0259534
360.5305 0.0259534
360.8723 0.0259535
361.2145 0.0259534
361.5573 0.0259532
361.9001 0.0259534
362.2396 0.0259538
362.5816 0.0259543
362.9236 0.0259548
363.2639 0.025955
364.0095 0.0259548
364.351 0.0259541
364.6954 0.0259541
365.0371 0.0259541
365.3779 0.0259541
365.7189 0.0259541
366.0588 0.0259535
366.3996 0.0259533
366.7411 0.0259531
367.0835 0.0259529
367.4247 0.0259529
367.7674 0.0259526
368.1076 0.0259523
368.449 0.0259517
368.7916 0.0259509
369.1338 0.0259509
369.4757 0.0259509
369.8178 0.0259509
370.16 0.0259509
370.5014 0.0259509
370.8436 0.0259509
371.1869 0.0259514
371.5284 0.0259514
371.8707 0.0259514
372.2107 0.0259514
372.5523 0.0259514
372.8945 0.0259509
373.2374 0.0259513
373.5791 0.0259513
373.9211 0.0259513
374.2617 0.0259509
374.6036 0.0259507
374.9444 0.0259503
375.2865 0.0259507
375.6268 0.0259508
375.9668 0.0259503
376.3071 0.0259491
376.6482 0.025948
376.9908 0.0259479
377.333 0.0259479
377.674 0.0259479
378.0171 0.0259479
378.3574 0.0259479
378.6991 0.025948
379.0412 0.0259481
379.7854 0.0259481
380.1261 0.0259481
380.4687 0.0259479
380.8093 0.0259479
381.1502 0.0259479
381.4914 0.0259479
381.8333 0.0259476
382.1732 0.0259475
382.5138 0.0259457
382.8564 0.0259434
383.1977 0.0259433
383.54 0.0259431
383.8805 0.0259423
384.224 0.0259423
384.5642 0.0259423
384.9061 0.0259423
385.2471 0.0259423
385.5871 0.0259423
385.9294 0.025942
386.2692 0.025942
386.6098 0.0259419
386.9522 0.0259419
387.2941 0.0259419
387.6342 0.0259419
387.9765 0.0259419
388.319 0.0259419
388.6618 0.0259419
389.0022 0.0259415
389.3428 0.0259409
389.6876 0.0259396
390.0298 0.0259396
390.3702 0.0259388
390.7112 0.0259388
391.0498 0.0259388
391.3931 0.0259388
391.7358 0.0259388
392.0767 0.0259388
392.4182 0.0259388
392.7582 0.0259388
393.1005 0.0259388
393.4404 0.0259396
393.7825 0.0259402
394.1247 0.0259402
394.4662 0.0259407
394.8087 0.0259412
395.5521 0.0259413
395.8918 0.0259413
396.2322 0.0259413
396.5751 0.0259413
396.9173 0.0259413
397.2582 0.0259413
397.5996 0.0259413
397.9394 0.0259413
398.2829 0.0259407
398.6232 0.0259393
398.9636 0.0259373
399.3044 0.0259367
399.6458 0.0259363
399.9858 0.0259363
400.3256 0.0259363
400.6664 0.0259363
401.0085 0.0259363
401.348 0.0259365
401.6883 0.0259359
402.0287 0.0259354
402.3714 0.0259353
402.7143 0.0259353
403.055 0.0259354
403.396 0.0259354
403.7377 0.0259354
404.0782 0.0259354
404.4184 0.0259354
404.7607 0.0259353
405.1019 0.0259354
405.4435 0.0259354
405.7836 0.0259354
406.1247 0.0259348
406.4662 0.0259341
406.8068 0.0259338
407.1472 0.0259338
407.4878 0.0259335
407.8291 0.0259335
408.1702 0.0259335
408.5108 0.0259333
408.8508 0.0259331
409.1927 0.0259331
409.5356 0.0259331
409.8781 0.0259331
410.2182 0.0259329
410.5581 0.0259327
411.303 0.0259325
411.6421 0.0259325
411.9841 0.0259323
412.3252 0.0259316
412.6666 0.0259309
413.0059 0.0259308
413.3468 0.0259306
413.6898 0.0259304
414.0314 0.0259302
414.3737 0.02593
414.7164 0.0259269
415.0594 0.0259224
415.4023 0.0259204
415.7436 0.0259198
416.0865 0.025919
416.4294 0.0259173
416.7701 0.0259173
417.1123 0.0259153
417.4522 0.0259144
417.7952 0.0259144
418.1373 0.0259144
418.4789 0.0259144
418.8195 0.0259149
419.1593 0.0259158
419.5008 0.0259158
419.8422 0.0259158
420.1818 0.0259158
420.5222 0.0259158
420.8647 0.0259158
421.2062 0.0259162
421.5463 0.0259172
421.8861 0.0259175
422.2279 0.025918
422.568 0.0259201
422.9097 0.0259221
423.2505 0.0259224
423.5903 0.0259226
423.9351 0.0259237
424.2781 0.0259255
424.6182 0.0259265
424.9604 0.0259266
425.3025 0.025927
425.6445 0.025927
425.9847 0.025927
426.3257 0.025927
427.0696 0.025927
427.4114 0.025927
427.7531 0.025927
428.0949 0.0259266
428.4355 0.0259261
428.7761 0.0259253
429.1174 0.0259246
429.459 0.0259238
429.7993 0.0259229
430.1394 0.0259204
430.4817 0.0259185
430.8225 0.0259185
431.1617 0.0259179
431.504 0.0259177
431.8465 0.0259177
432.186 0.0259177
432.5268 0.0259177
432.8676 0.0259177
433.2102 0.0259177
433.5523 0.0259177
433.8923 0.0259178
434.2317 0.0259186
434.5734 0.0259195
434.9147 0.0259199
435.2567 0.0259203
435.5968 0.0259204
435.9378 0.0259204
436.2782 0.0259204
436.6191 0.0259204
436.9601 0.0259204
437.3015 0.0259204
437.6436 0.0259207
437.9861 0.0259207
438.3285 0.0259207
438.6686 0.0259207
439.0075 0.0259201
439.3493 0.0259193
439.6915 0.0259186
440.0341 0.025918
440.3741 0.0259177
440.7148 0.0259174
441.0545 0.0259172
441.3955 0.0259172
441.7354 0.0259171
442.0781 0.0259168
442.822 0.0259167
443.163 0.0259165
443.5048 0.0259162
443.8465 0.0259162
444.1888 0.0259162
444.5304 0.0259157
444.8704 0.0259152
445.2102 0.0259149
445.5521 0.0259148
445.8945 0.0259147
446.235 0.0259142
446.5761 0.0259137
446.917 0.0259142
447.2582 0.0259142
447.5984 0.0259137
447.9408 0.0259137
448.282 0.0259137
448.6218 0.0259137
448.964 0.0259137
449.3061 0.0259137
449.6484 0.0259137
449.9912 0.0259137
450.3325 0.0259137
450.6742 0.0259137
451.0149 0.025914
451.3537 0.025914
451.6956 0.0259141
452.0354 0.0259141
452.3774 0.0259142
452.7171 0.0259145
453.0578 0.0259151
453.3977 0.0259157
453.74 0.0259157
454.08 0.0259157
454.4218 0.0259163
454.7629 0.0259165
455.1044 0.0259165
455.4464 0.0259166
455.7867 0.0259166
456.1271 0.0259166
456.4693 0.0259166
456.8118 0.0259167
457.153 0.0259169
457.4941 0.0259171
457.8328 0.0259172
458.5767 0.0259172
458.9178 0.0259172
459.2582 0.025917
459.6002 0.0259167
459.9418 0.0259166
460.2818 0.0259165
460.6229 0.0259163
460.9636 0.0259156
461.3056 0.0259154
461.6463 0.0259146
461.9864 0.025914
462.3281 0.025914
462.669 0.0259137
463.0109 0.0259132
463.3533 0.0259129
463.6931 0.0259128
464.0341 0.0259126
464.3748 0.0259126
464.7164 0.0259124
465.0585 0.0259119
465.3984 0.0259119
465.74 0.0259119
466.0821 0.0259119
466.4228 0.0259121
466.7625 0.0259121
467.1052 0.0259118
467.4482 0.0259118
467.7899 0.0259118
468.1312 0.0259115
468.4741 0.0259109
468.8163 0.0259109
469.156 0.0259107
469.4965 0.0259105
469.8368 0.0259101
470.1793 0.0259097
470.5215 0.0259091
470.8622 0.0259085
471.2022 0.0259078
471.5422 0.0259073
471.8849 0.025907
472.2265 0.025907
472.5673 0.0259069
472.9084 0.0259069
473.2494 0.0259069
473.5904 0.0259071
474.3351 0.0259073
474.6749 0.0259073
475.019 0.0259071
475.3616 0.0259069
475.7014 0.0259067
476.0434 0.0259059
476.3846 0.0259059
476.7259 0.0259051
477.0661 0.0259051
477.4068 0.0259051
477.747 0.0259059
478.0894 0.0259059
478.4305 0.0259064
478.7701 0.025906
479.1116 0.025906
479.4538 0.0259058
479.796 0.0259054
480.1368 0.0259054
480.4773 0.0259054
480.8171 0.0259051
481.1587 0.0259051
481.4994 0.0259051
481.8392 0.0259051
482.1796 0.0259051
482.5204 0.0259051
482.8632 0.0259051
483.2054 0.0259051
483.548 0.0259049
483.8904 0.0259049
484.2315 0.0259049
484.5745 0.0259049
484.9134 0.025905
485.2546 0.025905
485.5952 0.025905
485.9339 0.0259048
486.2749 0.0259048
486.6156 0.0259048
486.9568 0.0259046
487.2991 0.0259043
487.6404 0.025904
487.9826 0.025904
488.3236 0.0259037
488.6622 0.0259035
489.0061 0.0259031
489.3484 0.0259029
490.0942 0.0259029
490.4355 0.0259029
490.7764 0.0259029
491.1175 0.0259028
491.4589 0.0259027
491.8009 0.0259024
492.1421 0.0259022
492.4814 0.0259018
492.8235 0.0259012
493.1646 0.0259012
493.5074 0.0258987
493.8488 0.0258955
494.1889 0.0258948
494.5301 0.0258945
494.8719 0.0258945
495.2125 0.0258944
495.553 0.0258943
495.894 0.0258943
496.2356 0.0258943
496.5768 0.0258943
496.9166 0.0258943
497.2592 0.0258944
497.6013 0.0258945
497.9416 0.0258945
498.2831 0.0258948
498.624 0.0258954
498.9636 0.0258958
499.3061 0.0258958
499.648 0.0258958
499.9874 0.0258956
500.3279 0.0258956
500.669 0.0258956
501.0102 0.0258958
501.3505 0.0258959
501.6931 0.025896
502.0354 0.0258963
502.3762 0.0258966
502.7192 0.025897
503.0614 0.0258974
503.403 0.0258974
503.7431 0.025897
504.0831 0.0258964
504.424 0.0258964
504.7638 0.0258964
505.1055 0.025896
505.8501 0.025896
506.1905 0.0258958
506.5321 0.0258958
506.8741 0.0258958
507.2147 0.0258957
507.5538 0.0258957
507.8955 0.0258957
508.2367 0.0258955
508.5774 0.0258952
508.9186 0.0258943
509.2594 0.0258943
509.6014 0.0258931
509.9422 0.025892
510.2823 0.0258916
510.6229 0.0258912
510.9652 0.0258912
511.3076 0.0258912
511.6507 0.0258912
511.993 0.0258912
512.3342 0.0258912
512.6762 0.0258912
513.0166 0.0258916
513.3564 0.0258917
513.6974 0.0258924
514.0382 0.0258933
514.378 0.0258939
514.7196 0.0258941
515.0614 0.0258944
515.4021 0.0258944
515.745 0.0258948
516.0868 0.0258948
516.4283 0.0258952
516.7698 0.0258955
517.112 0.0258955
517.4526 0.0258955
517.7949 0.0258955
518.1359 0.0258955
518.4777 0.0258955
518.8177 0.0258955
519.1576 0.0258951
519.4993 0.0258951
519.8387 0.0258945
520.1811 0.0258939
520.5229 0.0258939
520.8627 0.0258931
521.6075 0.0258931
521.9483 0.0258926
522.2903 0.0258926
522.6322 0.0258924
522.9719 0.0258921
523.3129 0.0258918
523.6543 0.0258916
523.9965 0.0258907
524.3394 0.0258899
524.6817 0.0258899
525.0237 0.0258894
525.3661 0.0258882
525.7077 0.0258881
526.0505 0.0258881
526.3919 0.0258881
526.7347 0.0258881
527.0772 0.0258881
527.4175 0.0258873
527.7612 0.0258871
528.1036 0.0258871
528.446 0.0258871
528.7889 0.0258873
529.1291 0.0258878
529.4697 0.0258885
529.8101 0.0258889
530.1523 0.0258893
530.4944 0.0258895
530.8352 0.0258897
531.1782 0.0258901
531.5181 0.0258901
531.8589 0.0258901
532.1996 0.0258905
532.5396 0.0258906
532.8795 0.0258905
533.2217 0.0258901
533.5625 0.0258901
533.905 0.0258901
534.2466 0.0258901
534.588 0.0258903
534.9305 0.0258903
535.2704 0.02589
535.612 0.0258898
535.9548 0.0258896
536.2978 0.0258896
536.6396 0.0258896
537.3821 0.0258898
537.7227 0.0258894
538.0636 0.0258887
538.4047 0.0258884
538.7451 0.0258884
539.0895 0.0258884
539.4316 0.0258882
539.773 0.0258876
540.1139 0.0258867
540.4533 0.0258861
540.7945 0.0258839
541.1358 0.0258806
541.4778 0.0258787
541.8217 0.0258787
542.164 0.0258787
542.5064 0.0258784
542.8476 0.0258784
543.1897 0.025878
543.5298 0.025878
543.8714 0.025878
544.2132 0.025878
544.5556 0.0258784
544.8974 0.025879
545.2394 0.0258792
545.5823 0.0258795
545.924 0.0258796
546.2662 0.0258797
546.6084 0.0258798
546.9505 0.0258798
547.291 0.0258803
547.6326 0.025881
547.9746 0.0258818
548.316 0.025883
548.6586 0.0258837
548.9995 0.025884
549.343 0.0258844
549.6858 0.025885
550.0268 0.025885
550.3688 0.025885
550.7098 0.025885
551.0505 0.025885
551.3928 0.025885
551.7337 0.0258844
552.074 0.0258841
552.4141 0.0258841
553.1581 0.0258837
553.4981 0.0258827
553.8387 0.0258816
554.1794 0.0258812
554.5191 0.0258806
554.8617 0.0258796
555.2023 0.025879
555.544 0.0258789
555.8859 0.0258789
556.2265 0.0258783
556.6075 0.0258777
556.948 0.0258776
557.2901 0.0258775
557.6306 0.0258775
557.9725 0.0258774
558.3119 0.0258774
558.6538 0.0258774
558.9953 0.0258774
559.3355 0.0258774
559.6755 0.0258774
560.0154 0.0258774
560.3574 0.0258774
560.6996 0.0258775
561.0394 0.0258778
561.3794 0.0258782
561.7215 0.0258786
562.0628 0.0258789
562.4038 0.025879
562.7453 0.0258792
563.0887 0.0258793
563.4315 0.0258794
563.7739 0.0258798
564.1167 0.0258806
564.4588 0.0258812
564.7992 0.0258814
565.1396 0.0258815
565.4793 0.0258821
565.8194 0.0258835
566.1618 0.0258845
566.5041 0.0258848
566.8444 0.0258855
567.1854 0.0258855
567.5276 0.0258855
567.8673 0.0258862
568.2097 0.0258864
568.9541 0.0258867
569.2948 0.0258867
569.636 0.0258867
569.9776 0.0258866
570.3192 0.0258866
570.6577 0.0258856
570.9996 0.0258848
571.3396 0.0258846
571.6808 0.0258846
572.0217 0.0258839
572.3634 0.0258835
572.7065 0.0258826
573.0491 0.0258816
573.3916 0.0258816
573.7316 0.0258816
574.0724 0.0258816
574.4137 0.0258816
574.7544 0.0258816
575.0938 0.0258816
575.4359 0.0258816
575.7779 0.0258816
576.1194 0.0258824
576.4621 0.0258833
576.8029 0.0258835
577.144 0.0258835
577.4862 0.0258835
577.8287 0.0258836
578.1705 0.0258838
578.5121 0.0258841
578.8542 0.0258843
579.1944 0.0258846
579.5363 0.0258847
579.8781 0.0258847
580.2194 0.0258847
580.5581 0.0258847
580.9003 0.0258845
581.2425 0.0258844
581.5843 0.0258842
581.9252 0.0258844
582.2672 0.0258844
582.6078 0.0258844
582.9484 0.0258842
583.2902 0.0258841
583.6321 0.0258837
583.9744 0.0258837
584.7194 0.0258837
585.0624 0.0258834
585.4019 0.025883
585.7429 0.0258826
586.0842 0.0258822
586.4259 0.0258817
586.7662 0.0258806
587.106 0.0258795
587.4484 0.0258789
587.7907 0.0258787
588.1302 0.0258751
588.471 0.0258713
588.8134 0.0258713
589.1549 0.0258713
589.495 0.0258713
589.8371 0.0258713
590.1781 0.0258713
590.5205 0.0258713
590.863 0.0258713
591.2054 0.0258713
591.5458 0.0258713
591.8857 0.0258714
592.2263 0.0258723
592.5669 0.025873
592.9088 0.025873
593.2506 0.0258731
593.5906 0.0258732
593.9332 0.0258734
594.2732 0.0258736
594.6149 0.0258738
594.9559 0.0258741
595.2963 0.0258744
595.6373 0.0258744
595.9785 0.0258748
596.3198 0.0258753
596.6609 0.0258753
597.0025 0.0258751
597.3459 0.0258751
597.6872 0.0258754
598.0267 0.0258756
598.3687 0.0258758
598.7091 0.025876
599.0498 0.0258762
599.3904 0.0258766
599.7324 0.0258773
600.4754 0.025878
600.816 0.025878
601.1582 0.025878
601.4982 0.025878
601.8382 0.0258775
602.1798 0.0258766
602.5197 0.0258764
602.8607 0.0258764
603.2021 0.0258757
603.5444 0.0258752
603.8843 0.0258752
604.2249 0.0258747
604.5647 0.025874
604.9072 0.0258737
605.2494 0.0258737
605.5901 0.0258737
605.9302 0.0258731
606.2716 0.0258731
606.611 0.0258731
606.9509 0.0258731
607.2933 0.0258731
607.6354 0.0258735
607.9781 0.0258738
608.3184 0.025874
608.6601 0.0258742
609.0022 0.0258745
609.3422 0.025875
609.6834 0.0258753
610.0236 0.0258753
610.3636 0.0258756
610.7035 0.025876
611.0441 0.0258762
611.3865 0.0258763
611.7267 0.0258765
612.0658 0.0258765
612.4077 0.0258765
612.7499 0.0258768
613.0913 0.0258773
613.4343 0.0258778
613.7758 0.0258782
614.1156 0.0258784
614.4583 0.0258784
614.8009 0.0258786
615.1408 0.0258788
615.4829 0.025879
616.2275 0.025879
616.5694 0.025879
616.9104 0.025879
617.2527 0.025879
617.5958 0.0258789
617.9369 0.0258787
618.2774 0.0258782
618.62 0.0258778
618.9628 0.0258771
619.3058 0.0258764
619.6471 0.0258762
619.9894 0.0258754
620.33 0.0258743
620.6711 0.0258743
621.0132 0.0258743
621.3553 0.0258743
621.6974 0.0258743
622.0376 0.0258738
622.3796 0.0258738
622.7203 0.0258738
623.0626 0.0258738
623.4033 0.025874
623.7454 0.0258743
624.0862 0.0258746
624.4302 0.0258747
624.7702 0.0258747
625.1121 0.0258748
625.454 0.025875
625.7952 0.0258751
626.137 0.0258752
626.478 0.0258752
626.8191 0.0258752
627.1594 0.0258753
627.5024 0.0258753
627.8449 0.0258753
628.1845 0.0258752
628.5243 0.0258753
628.8666 0.0258754
629.2076 0.0258754
629.5501 0.0258754
629.8912 0.0258754
630.2329 0.0258754
630.5751 0.0258754
630.9156 0.0258754
631.2579 0.0258753
632.0021 0.0258752
632.3447 0.0258751
632.6848 0.0258751
633.0257 0.025875
633.3661 0.0258747
633.7067 0.0258747
634.0474 0.0258747
634.3892 0.0258741
634.7324 0.0258736
635.0734 0.0258725
635.4156 0.0258705
635.7577 0.0258688
636.099 0.0258688
636.4396 0.0258688
636.7829 0.0258688
637.1244 0.0258688
637.4644 0.0258688
637.8062 0.0258688
638.1487 0.0258688
638.4909 0.0258688
638.8322 0.0258688
639.1727 0.0258698
639.5141 0.0258705
639.8549 0.0258708
640.197 0.025871
640.5376 0.0258712
640.8795 0.0258713
641.2196 0.0258713
641.5624 0.0258713
641.9038 0.0258713
642.2425 0.0258713
642.5844 0.0258713
642.9244 0.0258713
643.2665 0.0258712
643.6065 0.025871
643.9489 0.0258708
644.2911 0.0258701
644.6316 0.0258694
644.9714 0.0258692
645.3137 0.0258689
645.656 0.0258686
645.9969 0.0258685
646.3374 0.0258685
646.6772 0.0258685
647.0194 0.0258685
647.7618 0.0258685
648.1028 0.0258685
648.4453 0.0258684
648.7869 0.0258684
649.1279 0.0258683
649.47 0.0258682
649.813 0.0258678
650.1553 0.0258664
650.4982 0.0258651
650.8411 0.025865
651.183 0.0258649
651.5232 0.0258649
651.8631 0.0258648
652.2048 0.0258648
652.5458 0.0258648
652.8883 0.0258645
653.2306 0.0258645
653.5724 0.0258645
653.915 0.0258645
654.2582 0.0258645
654.6003 0.0258641
654.9425 0.0258644
655.2828 0.0258646
655.6228 0.0258648
655.9628 0.0258648
656.3054 0.0258648
656.648 0.0258648
656.9876 0.0258648
657.3292 0.0258647
657.6709 0.0258646
658.0116 0.0258646
658.3516 0.0258646
658.6924 0.0258646
659.0344 0.0258646
659.3762 0.0258646
659.7168 0.0258647
660.0592 0.0258647
660.4024 0.0258647
660.7431 0.0258647
661.083 0.0258646
661.4227 0.0258647
661.7612 0.0258647
662.1016 0.0258644
662.4438 0.025864
662.7886 0.025864
663.5317 0.0258644
663.874 0.0258644
664.2138 0.025864
664.5541 0.025864
664.8952 0.025864
665.2364 0.0258638
665.5786 0.0258636
665.9203 0.0258633
666.2614 0.0258629
666.6035 0.0258621
666.9458 0.0258601
667.2883 0.0258576
667.6306 0.0258576
667.9725 0.0258576
668.3145 0.0258576
668.6559 0.0258576
668.9974 0.0258576
669.3408 0.0258573
669.6834 0.0258573
670.0257 0.0258573
670.3686 0.0258573
670.7114 0.0258581
671.0537 0.0258581
671.3943 0.0258583
671.7377 0.0258583
672.0793 0.0258583
672.4211 0.0258583
672.7634 0.0258583
673.1059 0.0258586
673.4457 0.0258586
673.7862 0.0258583
674.1283 0.0258583
674.4712 0.0258581
674.8123 0.0258581
675.1545 0.0258581
675.4943 0.0258581
675.8364 0.0258579
676.1791 0.0258579
676.5216 0.0258579
676.8613 0.0258579
677.2015 0.0258577
677.5417 0.0258575
677.884 0.0258575
678.2258 0.0258575
678.5657 0.0258579
679.3109 0.0258584
679.651 0.0258584
679.9908 0.0258584
680.3328 0.0258579
680.6727 0.0258578
681.0148 0.0258578
681.3566 0.0258578
681.6984 0.0258576
682.0382 0.025857
682.3802 0.0258567
682.7225 0.0258567
683.0633 0.0258564
683.4058 0.0258564
683.7469 0.0258564
684.0894 0.0258564
684.4322 0.0258568
684.772 0.025857
685.1118 0.025857
685.4532 0.025857
685.7948 0.0258562
686.135 0.0258562
686.4756 0.0258562
686.8164 0.0258568
687.1586 0.0258572
687.4997 0.0258574
687.8418 0.0258575
688.1826 0.0258575
688.5235 0.0258576
688.8654 0.0258577
689.2091 0.0258578
689.5493 0.0258582
689.8912 0.0258586
690.2332 0.0258588
690.5737 0.0258586
690.9156 0.0258586
691.2555 0.0258586
691.5967 0.0258586
691.9367 0.0258588
692.2785 0.0258588
692.6219 0.0258591
692.9614 0.0258592
693.3044 0.0258592
693.6461 0.0258592
693.9865 0.0258591
694.3279 0.0258591
695.0722 0.0258591
695.415 0.0258591
695.7569 0.025859
696.0974 0.0258587
696.4381 0.0258586
696.7777 0.0258586
697.1203 0.0258583
697.4625 0.0258577
697.8021 0.025857
698.145 0.025856
698.4862 0.0258531
698.8265 0.0258514
699.1696 0.025851
699.5125 0.0258506
699.8529 0.0258504
