69.30322 0.0260038
69.6441 0.0260016
69.98818 0.0260011
70.33017 0.0260009
70.67506 0.0260009
71.01829 0.0260007
71.36227 0.0260007
71.70374 0.0260007
72.04435 0.0260007
72.38852 0.0260007
72.72913 0.0260002
73.07163 0.0260003
73.41409 0.0260004
73.75538 0.0260004
74.09794 0.0260004
74.44419 0.0260004
74.78521 0.026
75.13292 0.026
75.47493 0.0260004
75.81975 0.0260004
76.16107 0.0260008
76.50282 0.0260004
76.84339 0.026
77.18315 0.0259998
77.52791 0.0259997
77.87095 0.0259996
78.21289 0.0259995
78.55732 0.0259992
78.90084 0.0259988
79.24558 0.0259988
79.59025 0.0259985
79.93188 0.0259982
80.27472 0.0259977
80.61645 0.0259972
80.95943 0.0259969
81.70329 0.0259971
82.04516 0.0259971
82.38726 0.0259969
82.72907 0.0259967
83.07042 0.0259966
83.41126 0.0259965
83.75092 0.025996
84.09493 0.0259955
84.43812 0.0259953
84.77975 0.0259952
85.12375 0.0259917
85.46633 0.025988
85.80784 0.0259869
86.15044 0.0259865
86.49283 0.0259865
86.83344 0.0259865
87.17758 0.0259865
87.52068 0.0259865
87.86314 0.025986
88.20337 0.0259858
88.54647 0.0259855
88.88803 0.0259855
89.22845 0.0259855
89.56883 0.0259855
89.91173 0.0259855
90.2529 0.0259855
90.59538 0.0259858
90.9381 0.0259857
91.27975 0.0259854
91.62246 0.0259851
91.96414 0.0259847
92.3059 0.0259845
92.64773 0.0259844
92.99204 0.0259843
93.33285 0.0259842
93.67543 0.0259841
94.01573 0.0259839
94.35939 0.0259832
94.70192 0.0259826
95.0456 0.0259824
95.39088 0.0259822
95.73297 0.025982
96.07281 0.0259818
96.41315 0.0259817
96.75761 0.0259814
97.50122 0.025981
97.8428 0.0259805
98.18315 0.0259797
98.52391 0.0259793
98.8656 0.0259791
99.20888 0.0259788
99.55058 0.0259784
99.89483 0.0259782
100.2389 0.0259779
100.5811 0.0259773
100.9267 0.0259742
101.2677 0.025972
101.6093 0.025972
101.9495 0.025972
102.2932 0.0259719
102.6358 0.0259718
102.9783 0.0259716
103.3188 0.0259711
103.662 0.0259711
104.0055 0.0259711
104.3477 0.0259707
104.6903 0.0259707
105.0308 0.0259707
105.3739 0.0259707
105.7137 0.0259711
106.0554 0.0259712
106.3961 0.0259712
106.7376 0.0259712
107.078 0.0259712
107.4208 0.0259709
107.7634 0.0259709
108.108 0.0259706
108.4477 0.0259703
108.8322 0.0259703
109.1758 0.0259703
109.5175 0.02597
109.8605 0.0259699
110.2028 0.0259695
110.5466 0.0259695
110.8887 0.0259695
111.2312 0.0259695
111.5775 0.025969
111.9182 0.0259689
112.2609 0.0259688
112.6017 0.0259686
113.3457 0.0259682
113.6872 0.0259678
114.0296 0.0259676
114.3726 0.0259675
114.7162 0.0259674
115.0591 0.0259674
115.3997 0.0259674
115.7437 0.0259667
116.0868 0.0259659
116.4292 0.0259637
116.7714 0.0259609
117.1135 0.0259592
117.4568 0.025958
117.7994 0.0259574
118.1406 0.0259565
118.4821 0.0259557
118.826 0.0259551
119.1669 0.0259551
119.512 0.0259551
119.8554 0.0259551
120.1959 0.025955
120.5393 0.025955
120.8818 0.025955
121.2234 0.025955
121.5652 0.025955
121.9087 0.025955
122.2492 0.0259546
122.5927 0.0259541
122.9347 0.0259538
123.2801 0.0259535
123.6234 0.0259534
123.9656 0.0259534
124.308 0.0259532
124.6507 0.0259532
124.9935 0.0259533
125.3364 0.0259529
125.6797 0.0259526
126.0228 0.0259523
126.3656 0.0259522
126.7089 0.0259521
127.0507 0.0259521
127.3943 0.0259521
127.7379 0.025952
128.0798 0.0259513
128.4228 0.0259502
129.1688 0.0259498
129.5143 0.0259497
129.8572 0.0259493
130.1996 0.0259488
130.544 0.0259486
130.8877 0.0259486
131.2285 0.0259483
131.5708 0.0259481
131.9127 0.0259473
132.2557 0.0259464
132.5984 0.0259435
132.9405 0.0259414
133.2812 0.0259413
133.6234 0.0259406
133.9682 0.0259401
134.3114 0.0259397
134.6528 0.0259393
134.9959 0.0259391
135.3387 0.025939
135.6837 0.025939
136.0278 0.0259387
136.3701 0.0259387
136.7143 0.0259389
137.0573 0.0259389
137.3999 0.0259389
137.7433 0.0259386
138.086 0.0259382
138.4273 0.025938
138.7718 0.0259377
139.1121 0.0259374
139.453 0.0259373
139.7968 0.0259372
140.1388 0.0259372
140.4805 0.025937
140.8236 0.0259365
141.166 0.025936
141.5077 0.0259356
141.8484 0.0259356
142.1891 0.0259356
142.5315 0.0259352
142.8744 0.0259347
143.2159 0.0259341
143.5623 0.0259339
143.9034 0.0259332
144.2473 0.025933
144.9923 0.0259317
145.3347 0.0259308
145.6768 0.0259304
146.0173 0.0259303
146.3619 0.0259299
146.7036 0.0259286
147.0446 0.0259273
147.3874 0.0259265
147.7287 0.0259265
148.07 0.0259259
148.4115 0.0259256
148.7532 0.0259251
149.094 0.0259244
149.4353 0.025924
149.7782 0.025924
150.1212 0.0259239
150.4639 0.0259239
150.8069 0.0259239
151.1478 0.0259239
151.4914 0.0259239
151.8319 0.0259239
152.175 0.025924
152.5157 0.0259244
152.8611 0.0259255
153.2037 0.0259263
153.5477 0.0259266
153.891 0.0259274
154.2307 0.0259274
154.5757 0.0259266
154.9198 0.0259271
155.2629 0.0259271
155.6029 0.0259271
155.9448 0.0259271
156.2858 0.0259271
156.6281 0.0259271
156.9706 0.0259274
157.3119 0.0259274
157.6548 0.0259274
157.9967 0.0259273
158.3452 0.0259271
158.6889 0.0259268
159.0321 0.0259262
159.3746 0.0259262
159.7153 0.0259262
160.0568 0.0259262
160.8018 0.0259262
161.145 0.0259258
161.487 0.0259258
161.8295 0.0259258
162.1707 0.0259257
162.5132 0.0259256
162.855 0.0259256
163.1976 0.0259251
163.5397 0.0259242
163.8813 0.0259235
164.2242 0.025923
164.5671 0.0259224
164.9099 0.0259224
165.2519 0.0259224
165.5933 0.0259224
165.9354 0.0259224
166.2753 0.0259224
166.6154 0.0259224
166.9568 0.0259221
167.2996 0.025922
167.6451 0.025922
167.9875 0.0259221
168.33 0.0259221
168.6732 0.0259221
169.014 0.0259221
169.3553 0.0259221
169.6972 0.0259221
170.0407 0.0259221
170.3829 0.0259221
170.7247 0.0259221
171.0674 0.0259221
171.4099 0.025922
171.7508 0.0259219
172.0957 0.0259211
172.4364 0.025919
172.7797 0.0259175
173.122 0.0259175
173.4634 0.0259174
173.806 0.0259174
174.1487 0.0259174
174.4943 0.0259173
174.8372 0.025917
175.1789 0.0259167
175.5189 0.0259164
175.8615 0.0259164
176.6047 0.0259161
176.9452 0.0259159
177.287 0.0259159
177.6321 0.0259157
177.977 0.0259155
178.3198 0.025915
178.6631 0.0259148
179.0056 0.0259148
179.3481 0.0259143
179.6877 0.0259131
180.0298 0.0259119
180.3721 0.0259101
180.7145 0.0259086
181.0572 0.0259085
181.3988 0.0259084
181.7416 0.0259083
182.0833 0.0259082
182.4306 0.0259081
182.7715 0.0259081
183.1135 0.0259079
183.4562 0.0259077
183.798 0.0259077
184.1398 0.0259077
184.4794 0.0259077
184.8204 0.0259077
185.164 0.0259074
185.5071 0.0259072
185.848 0.0259072
186.1914 0.0259072
186.5318 0.025907
186.8723 0.025907
187.2139 0.025907
187.5576 0.025907
187.8979 0.0259074
188.2417 0.0259069
188.5841 0.0259069
188.9275 0.0259068
189.2688 0.0259068
189.6097 0.0259066
189.9535 0.0259068
190.2955 0.025907
190.6357 0.0259071
190.98 0.0259073
191.3216 0.0259076
191.6627 0.0259076
192.4059 0.0259076
192.7465 0.0259076
193.0869 0.0259076
193.4291 0.0259073
193.7714 0.0259073
194.1162 0.025907
194.4586 0.0259069
194.8025 0.0259067
195.1477 0.025906
195.4898 0.0259053
195.83 0.0259031
196.1726 0.0259003
196.5137 0.0258995
196.8547 0.0258988
197.1963 0.0258982
197.5377 0.0258982
197.8803 0.0258982
198.2234 0.0258976
198.566 0.0258976
198.9117 0.0258976
199.2535 0.0258976
199.5953 0.0258982
199.9379 0.0258982
200.2802 0.0258985
200.6238 0.0258988
200.9664 0.0258991
201.3092 0.0258988
201.651 0.0258988
201.9909 0.0258991
202.3331 0.0258995
202.6769 0.0258999
203.0179 0.0259002
203.3612 0.0259002
203.7042 0.0259004
204.0455 0.0259004
204.3863 0.0259006
204.7296 0.0259008
205.0721 0.0259008
205.4149 0.0259008
205.7575 0.0259006
206.0983 0.0259004
206.4444 0.0259002
206.7867 0.0259001
207.129 0.0259001
207.4696 0.0259
208.217 0.0258999
208.5617 0.0258999
208.9042 0.0258999
209.2481 0.0258994
209.5907 0.025899
209.9309 0.0258985
210.2727 0.0258978
210.6166 0.0258975
210.9594 0.0258966
211.3012 0.0258948
211.6456 0.025892
211.9881 0.0258901
212.331 0.02589
212.6725 0.0258896
213.0148 0.0258892
213.358 0.0258889
213.7004 0.0258889
214.0451 0.0258889
214.3905 0.0258889
214.7329 0.0258889
215.0757 0.0258889
215.4191 0.0258892
215.7639 0.0258896
216.107 0.02589
216.4494 0.0258901
216.7948 0.0258911
217.1358 0.025892
217.4789 0.0258924
217.8206 0.0258932
218.1645 0.0258937
218.5092 0.0258937
218.8514 0.0258944
219.1964 0.0258948
219.5397 0.0258948
219.88 0.0258948
220.2207 0.0258948
220.5647 0.0258948
220.9059 0.0258948
221.2491 0.0258947
221.594 0.0258943
221.9365 0.0258937
222.2809 0.0258935
222.6238 0.0258928
222.9663 0.0258928
223.3083 0.0258928
224.053 0.0258928
224.397 0.0258928
224.739 0.0258924
225.0812 0.025892
225.4237 0.0258918
225.764 0.0258915
226.106 0.0258913
226.4485 0.025891
226.7936 0.0258908
227.1357 0.0258902
227.4781 0.0258897
227.8203 0.0258895
228.164 0.0258894
228.5096 0.0258895
228.8488 0.0258892
229.1901 0.0258892
229.532 0.0258886
229.875 0.0258886
230.2157 0.0258882
230.5598 0.025888
230.9034 0.0258877
231.2439 0.0258877
231.5835 0.0258877
231.9268 0.0258877
232.2696 0.0258877
232.6118 0.0258874
232.9824 0.0258877
233.325 0.0258874
233.6643 0.0258874
234.0067 0.0258873
234.3474 0.0258873
234.6892 0.0258866
235.0298 0.025886
235.37 0.0258857
235.7114 0.0258854
236.0513 0.0258853
236.3934 0.0258853
236.7348 0.0258852
237.0753 0.0258852
237.4179 0.0258852
237.7572 0.0258852
238.0988 0.025885
238.4407 0.0258852
238.7796 0.0258853
239.1215 0.0258854
239.8661 0.0258859
240.2076 0.0258854
240.552 0.0258853
240.8967 0.0258851
241.2392 0.0258848
241.584 0.0258843
241.9259 0.0258843
242.2659 0.0258843
242.608 0.0258843
242.9524 0.0258836
243.2938 0.0258822
243.6351 0.0258806
243.9778 0.0258797
244.32 0.0258793
244.6631 0.025879
245.0035 0.025879
245.3444 0.025879
245.6839 0.0258788
246.0276 0.0258786
246.372 0.0258785
246.7128 0.0258785
247.0538 0.0258786
247.396 0.0258786
247.7406 0.0258786
248.0829 0.0258786
248.4222 0.0258786
248.7646 0.0258786
249.1067 0.0258785
249.4466 0.0258784
249.7872 0.0258783
250.1276 0.025878
250.4696 0.0258775
250.8105 0.0258771
251.1512 0.0258768
251.4916 0.0258761
251.8339 0.0258753
252.1764 0.0258753
252.5178 0.0258753
252.8595 0.0258753
253.2032 0.0258752
253.5451 0.0258752
253.8865 0.0258751
254.2287 0.0258748
254.5687 0.025874
254.9092 0.025874
255.6532 0.0258735
255.994 0.0258732
256.336 0.0258729
256.6764 0.0258723
257.0203 0.025872
257.3608 0.025872
257.7019 0.025872
258.0414 0.0258718
258.383 0.0258717
258.725 0.0258716
259.065 0.0258701
259.4073 0.0258687
259.7499 0.0258687
260.0922 0.0258687
260.4331 0.0258687
260.7752 0.0258687
261.1159 0.0258687
261.4577 0.0258686
261.7982 0.0258682
262.1389 0.0258682
262.4797 0.0258682
262.8195 0.0258682
263.1617 0.0258685
263.5027 0.0258685
263.8449 0.0258686
264.1876 0.0258687
264.5285 0.0258687
264.8712 0.0258687
265.212 0.0258687
265.5547 0.0258687
265.8952 0.0258688
266.2356 0.0258689
266.5752 0.0258689
266.9171 0.0258689
267.2575 0.0258689
267.5973 0.0258689
267.9384 0.0258689
268.2785 0.0258692
268.6206 0.0258696
268.9601 0.0258705
269.3025 0.0258713
269.6436 0.0258715
269.9862 0.025872
270.3272 0.0258725
270.668 0.0258726
271.4148 0.0258726
271.7562 0.0258726
272.0957 0.0258726
272.4383 0.0258726
272.7805 0.0258726
273.122 0.0258725
273.4639 0.0258721
273.8039 0.0258716
274.145 0.0258716
274.4865 0.0258714
274.8279 0.0258686
275.1687 0.0258659
275.5089 0.0258658
275.851 0.0258656
276.194 0.0258655
276.5357 0.0258653
276.8774 0.0258648
277.2199 0.0258648
277.5622 0.0258648
277.903 0.0258641
278.2424 0.0258641
278.5833 0.0258642
278.9254 0.0258643
279.2667 0.0258648
279.608 0.0258651
279.9487 0.0258651
280.2892 0.0258651
280.6319 0.0258647
280.9741 0.0258646
281.3149 0.0258646
281.6562 0.0258646
281.999 0.0258646
282.3397 0.0258646
282.6806 0.0258646
283.0219 0.0258646
283.3618 0.0258646
283.7055 0.0258648
284.0462 0.0258648
284.3879 0.0258648
284.7282 0.0258649
285.0704 0.0258654
285.4126 0.0258658
285.7561 0.0258658
286.0965 0.0258658
286.4389 0.0258659
287.183 0.0258662
287.5232 0.0258662
287.8655 0.0258662
288.2072 0.0258662
288.5495 0.0258658
288.891 0.0258658
289.2312 0.0258654
289.5725 0.0258648
289.9131 0.0258646
290.2545 0.0258646
290.5958 0.0258639
290.9382 0.0258617
291.28 0.0258599
291.6218 0.0258592
291.964 0.0258592
292.3077 0.0258592
292.6495 0.0258592
292.9899 0.0258592
293.3308 0.0258592
293.6724 0.0258592
294.0127 0.0258592
294.353 0.0258598
294.6949 0.0258598
295.0382 0.0258601
295.3806 0.0258604
295.7198 0.0258604
296.0617 0.0258604
296.4035 0.0258605
296.7458 0.0258606
297.0896 0.0258605
297.4316 0.0258604
297.7723 0.0258605
298.1113 0.0258605
298.4528 0.0258605
298.7931 0.0258604
299.1337 0.0258604
299.4769 0.0258603
299.8195 0.0258602
300.1606 0.0258602
300.503 0.0258602
300.8457 0.0258602
301.188 0.0258602
301.5282 0.0258603
301.8691 0.0258605
302.2106 0.0258609
302.956 0.0258612
303.2962 0.0258612
303.6376 0.025861
303.9779 0.0258605
304.3184 0.0258605
304.6591 0.0258605
305.0011 0.0258597
305.3408 0.0258597
305.6836 0.0258586
306.0255 0.0258568
306.3658 0.0258562
306.7083 0.025856
307.0506 0.025856
307.3905 0.0258558
307.7319 0.0258549
308.0723 0.0258542
308.4134 0.0258542
308.7533 0.025854
309.095 0.025854
309.4348 0.025854
309.7772 0.0258538
310.1167 0.0258538
310.4575 0.025854
310.7986 0.025854
311.139 0.0258542
311.4783 0.0258542
311.819 0.0258542
312.1612 0.0258542
312.5018 0.0258543
312.8419 0.0258542
313.1839 0.0258542
313.5243 0.025854
313.8645 0.0258537
314.2053 0.0258536
314.5471 0.0258536
314.8874 0.0258534
315.229 0.0258527
315.572 0.0258516
315.9144 0.0258511
316.2577 0.025851
316.6024 0.025851
316.9446 0.02585
317.2858 0.0258491
317.6274 0.025849
317.97 0.025849
318.7123 0.0258489
319.0521 0.0258485
319.3944 0.025848
319.7374 0.0258479
320.0828 0.0258478
320.4238 0.0258477
320.7663 0.0258476
321.1081 0.0258476
321.4475 0.0258474
321.7894 0.0258471
322.1309 0.0258466
322.4716 0.025846
322.8138 0.0258461
323.1564 0.0258461
323.4966 0.0258461
323.8376 0.0258461
324.18 0.0258464
324.5233 0.0258464
324.8651 0.0258464
325.2056 0.0258464
325.5467 0.0258464
325.8879 0.0258464
326.228 0.0258468
326.5695 0.0258468
326.9118 0.0258469
327.2543 0.0258471
327.5949 0.0258473
327.9375 0.0258473
328.2796 0.0258471
328.622 0.0258471
328.9644 0.0258471
329.3068 0.0258471
329.6476 0.0258474
329.9881 0.0258471
330.3298 0.0258468
330.6698 0.0258467
331.013 0.0258466
331.3539 0.0258464
331.6947 0.0258462
332.0367 0.0258457
332.3789 0.0258452
332.7195 0.0258452
333.0604 0.0258452
333.4007 0.0258452
333.7409 0.0258451
334.4839 0.0258442
334.8243 0.0258432
335.1639 0.0258428
335.5055 0.0258425
335.8473 0.0258424
336.1888 0.0258422
336.5313 0.0258419
336.872 0.0258412
337.2131 0.0258407
337.5539 0.0258404
337.8947 0.0258383
338.2348 0.0258362
338.5749 0.0258356
338.9171 0.0258352
339.259 0.0258352
339.5992 0.0258352
339.9415 0.0258352
340.2841 0.0258352
340.6257 0.0258352
340.968 0.0258352
341.308 0.0258352
341.6479 0.0258356
341.9882 0.0258356
342.3283 0.0258356
342.6705 0.0258356
343.0116 0.0258356
343.3536 0.0258356
343.696 0.0258352
344.036 0.0258352
344.3771 0.0258356
344.7171 0.0258365
345.057 0.025837
345.398 0.0258371
345.7397 0.0258371
346.0812 0.0258373
346.4216 0.0258376
346.7637 0.0258379
347.1063 0.0258379
347.4488 0.0258379
347.7909 0.025838
348.1304 0.0258381
348.4723 0.0258383
348.8123 0.0258385
349.1545 0.0258386
349.4948 0.0258387
350.24 0.0258389
350.5802 0.0258389
350.9226 0.0258389
351.2646 0.0258389
351.6047 0.0258389
351.9444 0.0258387
352.286 0.0258387
352.6257 0.0258387
353.0086 0.0258389
353.3512 0.025839
353.6919 0.025839
354.0344 0.025839
354.3765 0.025839
354.7187 0.025839
355.0586 0.025839
355.4 0.0258385
355.7407 0.0258381
356.0818 0.0258381
356.4228 0.0258381
356.7636 0.0258381
357.1061 0.0258381
357.4467 0.0258392
357.7876 0.0258401
358.1288 0.0258404
358.4693 0.0258411
358.8141 0.0258417
359.154 0.0258418
359.4942 0.0258418
359.8418 0.0258415
360.1838 0.0258418
360.5257 0.0258423
360.8668 0.0258425
361.2089 0.0258425
361.5491 0.0258425
361.8896 0.0258423
362.2298 0.0258423
362.5709 0.0258423
362.9125 0.0258423
363.2552 0.0258423
363.5981 0.0258421
363.9371 0.0258418
364.2783 0.0258412
364.6209 0.0258405
364.9636 0.02584
365.3027 0.0258395
366.0469 0.0258392
366.3864 0.0258388
366.7285 0.0258388
367.0707 0.0258385
367.4106 0.0258385
367.751 0.0258384
368.0932 0.0258383
368.4345 0.0258382
368.777 0.0258379
369.1179 0.0258376
369.4597 0.0258376
369.8017 0.0258374
370.1421 0.0258372
370.4848 0.0258371
370.8268 0.0258361
371.1672 0.0258351
371.509 0.0258351
371.8516 0.0258349
372.1916 0.0258346
372.5316 0.0258342
372.8724 0.0258341
373.2145 0.0258341
373.5557 0.0258341
373.8972 0.0258342
374.237 0.0258346
374.5786 0.0258342
374.9201 0.0258341
375.2602 0.0258341
375.6033 0.0258341
375.9451 0.0258333
376.2854 0.0258324
376.6272 0.0258322
376.9673 0.0258322
377.3094 0.0258322
377.6494 0.0258322
377.991 0.0258321
378.3325 0.0258319
378.6734 0.0258319
379.0135 0.0258312
379.3556 0.0258305
379.6978 0.0258291
380.0409 0.0258276
380.3832 0.0258271
380.7232 0.0258271
381.0641 0.0258268
381.8091 0.0258268
382.1498 0.0258268
382.4914 0.0258265
382.8327 0.0258263
383.1724 0.0258262
383.5159 0.0258257
383.8581 0.025825
384.1998 0.0258245
384.5418 0.0258245
384.8818 0.0258244
385.2236 0.0258222
385.5655 0.0258196
385.9098 0.0258191
386.252 0.0258191
386.5931 0.0258191
386.9321 0.0258191
387.2727 0.0258191
387.6146 0.0258191
387.9563 0.0258191
388.2994 0.0258191
388.6414 0.0258191
388.983 0.0258191
389.3233 0.0258192
389.6632 0.0258196
390.0035 0.0258196
390.3464 0.0258201
390.688 0.0258202
391.0283 0.0258202
391.3688 0.0258202
391.7116 0.0258202
392.0537 0.0258203
392.395 0.0258206
392.7374 0.0258209
393.0761 0.0258209
393.4149 0.0258209
393.7572 0.025821
394.1 0.025821
394.4403 0.0258211
394.7812 0.0258212
395.122 0.0258213
395.4625 0.0258216
395.8021 0.0258218
396.1436 0.0258223
396.4859 0.0258231
396.828 0.0258237
397.5718 0.0258239
397.9129 0.0258239
398.2538 0.0258239
398.5968 0.0258239
398.9388 0.0258239
399.2788 0.0258239
399.6193 0.0258239
399.9615 0.0258239
400.3005 0.0258237
400.6433 0.0258229
400.9855 0.0258207
401.3259 0.0258197
401.666 0.0258197
402.0072 0.0258193
402.3479 0.0258192
402.6898 0.0258187
403.0321 0.0258187
403.3723 0.0258187
403.7118 0.0258186
404.0516 0.0258186
404.3935 0.0258186
404.7322 0.0258189
405.0735 0.0258189
405.4132 0.0258192
405.7553 0.0258193
406.097 0.0258195
406.4417 0.0258197
406.7813 0.0258199
407.1229 0.02582
407.4646 0.0258202
407.8051 0.0258204
408.1454 0.0258204
408.4847 0.0258204
408.8273 0.0258205
409.1688 0.0258207
409.5108 0.0258209
409.8524 0.0258209
410.1916 0.0258213
410.5342 0.0258213
410.8765 0.0258215
411.2191 0.0258217
411.5614 0.0258217
411.9047 0.0258219
412.2463 0.0258221
412.5871 0.0258223
413.3349 0.0258223
413.6744 0.0258221
414.0166 0.0258219
414.3567 0.0258217
414.6964 0.0258217
415.0367 0.0258217
415.3781 0.0258217
415.7193 0.0258214
416.0608 0.025821
416.4017 0.0258203
416.7418 0.0258185
417.0838 0.0258165
417.4248 0.0258156
417.7668 0.0258156
418.1084 0.0258151
418.4511 0.0258148
418.792 0.0258148
419.1312 0.0258148
419.4726 0.0258148
419.8126 0.0258148
420.1526 0.0258148
420.4947 0.0258151
420.8359 0.0258156
421.1776 0.0258158
421.5186 0.0258165
421.8592 0.0258177
422.2012 0.0258183
422.5418 0.0258184
422.8814 0.0258189
423.2233 0.0258193
423.5661 0.0258194
423.9081 0.0258194
424.2479 0.0258194
424.5914 0.0258194
424.9322 0.0258194
425.2729 0.0258195
425.6135 0.0258195
425.9542 0.0258195
426.2966 0.0258195
426.6367 0.0258195
426.9788 0.0258195
427.321 0.0258194
427.6625 0.0258195
428.0029 0.0258195
428.3448 0.0258194
429.089 0.0258195
429.4314 0.0258194
429.7728 0.0258193
430.115 0.0258192
430.4553 0.0258189
430.7989 0.0258186
431.139 0.0258186
431.4811 0.0258182
431.8211 0.0258177
432.1615 0.0258169
432.5036 0.0258153
432.8458 0.0258129
433.1881 0.0258127
433.5284 0.0258125
433.8682 0.0258121
434.2105 0.0258121
434.5536 0.0258121
434.8956 0.0258121
435.2371 0.0258121
435.5791 0.0258121
435.9202 0.0258121
436.2609 0.0258125
436.604 0.0258125
436.9448 0.0258125
437.2857 0.0258125
437.6263 0.0258129
437.9667 0.025813
438.3087 0.0258131
438.6491 0.0258131
438.9914 0.0258133
439.3338 0.0258133
439.6759 0.0258133
440.017 0.0258131
440.3567 0.0258131
440.6989 0.0258131
441.0393 0.0258131
441.3818 0.0258128
441.7223 0.0258128
442.0617 0.0258124
442.4036 0.0258121
442.7465 0.025812
443.0885 0.0258118
443.4295 0.0258118
443.7721 0.0258116
444.1143 0.0258118
444.8588 0.0258115
445.2011 0.0258113
445.5435 0.025811
445.8836 0.0258102
446.2251 0.0258095
446.5664 0.0258093
446.9091 0.0258088
447.2489 0.0258081
447.5887 0.0258074
447.9316 0.0258067
448.2713 0.0258067
448.6124 0.0258067
448.9546 0.0258067
449.2952 0.0258074
449.6351 0.0258079
449.9756 0.0258082
450.3175 0.0258082
450.6599 0.0258082
451.0 0.0258082
451.3396 0.0258081
451.6805 0.0258081
452.0209 0.0258083
452.3609 0.0258086
452.7028 0.0258091
453.0436 0.0258097
453.3841 0.0258103
453.7235 0.0258104
454.0651 0.0258104
454.4054 0.0258105
454.7463 0.0258107
455.0876 0.0258113
455.4288 0.0258116
455.7689 0.025812
456.1107 0.0258125
456.4526 0.0258128
456.7935 0.025813
457.1346 0.025813
457.4782 0.025813
457.8204 0.0258132
458.1618 0.0258134
458.5044 0.0258136
458.8444 0.0258138
459.1861 0.0258138
459.5269 0.0258136
459.8668 0.0258134
460.6119 0.0258134
460.9523 0.0258134
461.294 0.0258129
461.6333 0.0258125
461.9756 0.0258122
462.3161 0.0258122
462.6567 0.0258122
463.0029 0.0258117
463.3425 0.0258111
463.6832 0.0258106
464.0238 0.0258095
464.3656 0.0258092
464.7054 0.0258082
465.0483 0.0258078
465.3889 0.0258078
465.7302 0.0258078
466.0699 0.0258078
466.4113 0.0258078
466.751 0.0258078
467.0912 0.0258078
467.432 0.0258077
467.7731 0.0258078
468.112 0.0258079
468.4539 0.0258079
468.7939 0.0258079
469.1323 0.0258079
469.4747 0.0258079
469.8171 0.0258079
470.1557 0.0258079
470.497 0.0258079
470.8385 0.0258077
471.1801 0.0258074
471.5209 0.0258071
471.8606 0.0258067
472.201 0.0258066
472.5414 0.0258061
472.8817 0.0258053
473.2229 0.0258047
473.5626 0.0258043
473.9044 0.0258043
474.2444 0.025804
474.5851 0.025804
474.9254 0.0258039
475.2678 0.0258038
475.6081 0.0258037
476.3521 0.0258036
476.6913 0.0258035
477.0331 0.0258033
477.3719 0.0258028
477.7135 0.0258023
478.0539 0.0258021
478.3942 0.0258019
478.7369 0.0258017
479.0793 0.0258014
479.4196 0.0258013
479.7591 0.0258016
480.0996 0.0258013
480.4418 0.0258013
480.7849 0.0258017
481.1272 0.0258017
481.4708 0.0258017
481.8126 0.0258017
482.1528 0.0258015
482.4936 0.0258013
482.8347 0.0258003
483.1752 0.0257994
483.5172 0.0257994
483.8583 0.0257994
484.2007 0.0257994
484.5415 0.0257994
484.8841 0.0257994
485.2255 0.0258003
485.5685 0.0258013
485.9111 0.0258014
486.2527 0.0258014
486.5931 0.0258014
486.9354 0.0258016
487.2752 0.0258016
487.6174 0.0258016
487.9581 0.0258016
488.3 0.0258016
488.6408 0.0258016
488.9827 0.0258017
489.3243 0.0258022
489.667 0.025803
490.0097 0.0258031
490.3518 0.0258034
490.6921 0.0258037
491.0322 0.0258037
491.3735 0.0258037
492.1171 0.0258037
492.4571 0.0258037
492.7971 0.0258037
493.1373 0.0258037
493.4796 0.0258031
493.8189 0.0258031
494.161 0.0258028
494.5041 0.0258026
494.8456 0.0258026
495.1876 0.0258019
495.5298 0.0257979
495.8699 0.0257942
496.2098 0.0257938
496.5505 0.0257935
496.8903 0.0257934
497.2323 0.0257933
497.5718 0.0257932
497.9131 0.0257931
498.2539 0.0257931
498.5938 0.0257931
498.9343 0.0257931
499.2767 0.0257932
499.6169 0.0257933
499.9595 0.0257934
500.3006 0.0257935
500.6449 0.0257936
500.9852 0.0257936
501.3258 0.025794
501.6669 0.0257952
502.0076 0.0257961
502.3487 0.0257965
502.6912 0.0257973
503.0328 0.0257982
503.3755 0.0257986
503.7167 0.0257988
504.0596 0.0257995
504.4012 0.0258005
504.7429 0.0258013
505.085 0.0258016
505.4257 0.0258019
505.7655 0.0258021
506.108 0.0258021
506.4521 0.0258022
506.7915 0.0258022
507.1368 0.0258023
507.8819 0.0258026
508.2218 0.0258026
508.5626 0.0258023
508.9041 0.0258022
509.2451 0.0258022
509.5876 0.0258021
509.9271 0.0258021
510.268 0.0258021
510.6076 0.0258016
510.9494 0.0258013
511.2894 0.0258013
511.6299 0.0258012
511.972 0.0258012
512.3144 0.0258008
512.656 0.0258008
512.9976 0.0258008
513.3393 0.0258008
513.6815 0.0258002
514.0217 0.0257999
514.3636 0.0257999
514.7027 0.0257996
515.0432 0.0257999
515.3854 0.0257999
515.7272 0.0258002
516.0677 0.0258005
516.4083 0.0258006
516.7491 0.0258009
517.0894 0.0258008
517.4293 0.0258008
517.7717 0.0258006
518.1147 0.0258006
518.4576 0.0258006
518.7998 0.0258005
519.1396 0.0258002
519.4806 0.0257999
519.8227 0.0257999
520.1644 0.0257999
520.5062 0.0258001
520.8457 0.0258006
521.1878 0.0258006
521.5285 0.0258006
521.8698 0.0258008
522.2107 0.0258003
522.5525 0.0257995
522.8916 0.025799
523.6368 0.0257986
523.9781 0.0257983
524.3201 0.0257982
524.6615 0.0257982
525.0016 0.025798
525.3432 0.025798
525.685 0.025798
526.027 0.025798
526.3669 0.025798
526.709 0.0257981
527.0476 0.0257981
527.3878 0.0257976
527.7273 0.0257971
528.0672 0.0257968
528.4069 0.0257961
528.7486 0.0257961
529.0912 0.0257961
529.4338 0.0257961
529.7737 0.0257961
530.1157 0.0257953
530.4579 0.0257953
530.7977 0.0257961
531.1392 0.0257962
531.4795 0.0257968
531.8215 0.0257971
532.1629 0.0257971
532.5055 0.0257971
532.8474 0.0257971
533.1905 0.025797
533.532 0.0257966
533.8731 0.0257959
534.2156 0.0257959
534.5561 0.0257959
534.8979 0.0257959
535.2396 0.0257959
535.5788 0.0257953
535.9199 0.0257953
536.2618 0.0257949
536.6039 0.0257947
536.9457 0.0257944
537.2873 0.0257938
537.6279 0.0257934
537.968 0.0257934
538.3095 0.0257932
538.6496 0.0257931
539.3938 0.0257929
539.7362 0.0257927
540.0756 0.0257927
540.4177 0.0257925
540.7583 0.0257923
541.0999 0.0257923
541.4418 0.0257922
541.7841 0.0257922
542.1247 0.0257922
542.4646 0.025792
542.8051 0.025789
543.1466 0.0257878
543.4867 0.0257878
543.8279 0.0257861
544.1687 0.0257861
544.5079 0.0257861
544.8499 0.0257861
545.1905 0.0257861
545.533 0.0257861
545.8748 0.0257861
546.2159 0.0257861
546.5588 0.0257876
546.9008 0.0257892
547.2427 0.0257894
547.5851 0.0257895
547.9269 0.0257896
548.2684 0.0257898
548.6087 0.0257906
548.9484 0.0257913
549.2894 0.0257913
549.63 0.0257913
549.9717 0.0257913
550.3129 0.0257913
550.6545 0.0257913
550.9952 0.0257913
551.3351 0.0257913
551.6759 0.0257913
552.0171 0.0257913
552.3584 0.0257912
552.7004 0.0257911
553.0411 0.0257909
553.383 0.0257907
553.7251 0.0257905
554.0658 0.0257904
554.4055 0.0257901
555.149 0.0257899
555.4902 0.0257899
555.8306 0.0257898
556.173 0.0257897
556.514 0.0257894
556.8552 0.0257894
557.195 0.0257891
557.5348 0.0257888
557.8748 0.0257883
558.217 0.0257878
558.5575 0.0257852
558.9 0.0257824
559.2429 0.0257821
559.5849 0.0257821
559.925 0.0257821
560.2666 0.0257821
560.6067 0.0257821
560.9465 0.0257821
561.2873 0.0257821
561.6276 0.0257821
561.97 0.0257821
562.312 0.0257823
562.6534 0.0257827
562.993 0.0257833
563.3352 0.0257838
563.678 0.0257843
564.0178 0.0257845
564.3574 0.0257846
564.6972 0.0257849
565.0384 0.0257854
565.3785 0.0257854
565.7199 0.0257859
566.0601 0.0257863
566.4005 0.0257865
566.7405 0.0257865
567.0811 0.025787
567.423 0.025787
567.7644 0.0257874
568.1055 0.0257875
568.4475 0.0257877
568.7901 0.0257879
569.1331 0.025788
569.4757 0.0257881
569.817 0.0257882
570.1588 0.0257883
570.903 0.0257883
571.2442 0.0257882
571.5855 0.0257882
571.925 0.0257882
572.266 0.0257882
572.6084 0.0257882
572.9489 0.025788
573.2912 0.025788
573.6313 0.0257877
573.976 0.0257868
574.3167 0.0257855
574.6596 0.0257852
574.9996 0.0257845
575.3406 0.0257841
575.6826 0.0257835
576.0251 0.025783
576.3654 0.0257829
576.7076 0.0257828
577.0483 0.0257828
577.3906 0.0257828
577.7324 0.0257828
578.0751 0.0257828
578.4165 0.0257828
578.7582 0.0257828
579.0989 0.0257828
579.441 0.0257829
579.7824 0.0257829
580.123 0.0257829
580.4649 0.0257828
580.8055 0.0257828
581.1481 0.0257828
581.4882 0.0257828
581.8287 0.0257829
582.169 0.025783
582.5108 0.0257831
582.8526 0.0257833
583.1931 0.0257837
583.5352 0.0257842
583.8772 0.0257845
584.2189 0.0257842
584.5592 0.0257843
584.9012 0.0257843
585.2427 0.0257843
585.5831 0.0257843
585.9215 0.0257843
586.6672 0.0257843
587.0081 0.0257843
587.3486 0.0257843
587.6885 0.0257843
588.029 0.0257842
588.372 0.025784
588.7126 0.0257839
589.0546 0.0257835
589.3981 0.025783
589.7401 0.0257829
590.0828 0.0257823
590.4225 0.0257816
590.765 0.0257809
591.1056 0.0257801
591.4477 0.02578
591.7878 0.0257796
592.1286 0.0257787
592.4706 0.025778
592.8113 0.0257774
593.1556 0.025777
593.496 0.025777
593.8368 0.0257774
594.1771 0.0257774
594.5193 0.0257779
594.8597 0.0257779
595.2012 0.0257779
595.5436 0.0257779
595.8846 0.0257779
596.2272 0.0257779
596.609 0.0257779
596.9488 0.0257779
597.2922 0.0257779
597.6335 0.0257782
597.9738 0.0257784
598.3152 0.0257788
598.6565 0.0257789
598.9992 0.0257793
599.34 0.0257798
599.6832 0.0257798
600.0256 0.0257798
600.3654 0.0257801
600.7064 0.0257801
601.0463 0.0257801
601.3884 0.0257801
601.7289 0.0257801
602.4737 0.0257801
602.8165 0.0257801
603.1588 0.0257798
603.499 0.0257796
603.8395 0.0257796
604.1818 0.0257793
604.5229 0.0257784
604.8636 0.0257778
605.2055 0.0257777
605.5476 0.0257764
605.8871 0.0257745
606.2296 0.0257745
606.5703 0.0257745
606.9116 0.0257745
607.2526 0.0257743
607.5931 0.0257735
607.9354 0.0257732
608.2786 0.0257731
608.619 0.0257729
608.9617 0.0257728
609.3048 0.0257728
609.6465 0.0257729
609.9877 0.0257731
610.3297 0.0257732
610.6682 0.0257735
611.0084 0.0257739
611.3513 0.0257746
611.6935 0.025775
612.034 0.0257751
612.3738 0.0257752
612.7155 0.0257755
613.0559 0.0257755
613.3966 0.0257755
613.7389 0.0257757
614.081 0.0257758
614.4231 0.0257771
614.7627 0.0257787
615.1043 0.0257787
615.4446 0.0257793
615.7849 0.0257796
616.1269 0.0257796
616.4665 0.0257796
616.8077 0.0257796
617.1484 0.0257796
617.4909 0.0257796
618.2366 0.0257799
618.5783 0.0257799
618.9212 0.0257796
619.2613 0.0257793
619.6022 0.025779
619.944 0.0257787
620.2862 0.0257782
620.6269 0.0257774
620.9668 0.0257768
621.3081 0.025776
621.6485 0.0257748
621.9891 0.0257737
622.3288 0.0257726
622.6699 0.0257726
623.0109 0.0257723
623.3507 0.0257723
623.6932 0.0257723
624.0356 0.0257723
624.3786 0.0257723
624.7215 0.0257723
625.0637 0.0257723
625.4042 0.0257727
625.744 0.0257727
626.0854 0.0257727
626.4276 0.0257727
626.77 0.0257727
627.1112 0.0257724
627.4516 0.0257727
627.7941 0.0257727
628.136 0.0257727
628.4757 0.0257724
628.8178 0.0257727
629.1571 0.0257732
629.4991 0.0257732
629.8421 0.0257734
630.1841 0.0257734
630.524 0.0257734
630.8642 0.0257734
631.2062 0.0257729
631.5479 0.0257724
631.8886 0.0257724
632.2303 0.0257724
632.5703 0.0257729
632.9112 0.0257734
633.2524 0.0257734
633.998 0.0257736
634.3393 0.0257736
634.6825 0.0257735
635.025 0.0257735
635.3654 0.0257735
635.7087 0.0257735
636.051 0.025773
636.3921 0.0257725
636.7334 0.0257725
637.0756 0.0257725
637.4178 0.0257725
637.7601 0.0257724
638.1004 0.0257724
638.4396 0.0257728
638.7817 0.0257728
639.1239 0.0257724
639.4649 0.0257724
639.8068 0.0257724
640.1483 0.0257724
640.4905 0.0257726
640.8309 0.0257726
641.1728 0.025773
641.5149 0.0257735
641.8543 0.025774
642.1968 0.0257741
642.5399 0.0257741
642.8824 0.0257741
643.2258 0.0257741
643.5666 0.025774
643.9086 0.0257735
644.2494 0.0257731
644.5915 0.0257731
644.9316 0.025773
645.2722 0.0257729
645.6131 0.0257729
645.9555 0.0257729
646.2948 0.0257725
646.6352 0.0257722
646.976 0.0257721
647.3174 0.0257719
647.6583 0.0257718
648.0016 0.0257716
648.343 0.0257716
648.6829 0.0257716
649.0255 0.0257716
649.7706 0.0257713
650.112 0.0257711
650.4536 0.0257711
650.7944 0.0257711
651.1352 0.025771
651.476 0.0257708
651.8171 0.0257705
652.1571 0.0257702
652.499 0.0257702
652.8411 0.0257693
653.1831 0.0257664
653.5236 0.0257641
653.8655 0.0257636
654.2079 0.0257636
654.5478 0.0257636
654.8898 0.0257631
655.2321 0.0257631
655.5731 0.0257631
655.913 0.0257631
656.2531 0.0257631
656.5954 0.0257631
656.9352 0.0257632
657.2753 0.0257632
657.6178 0.0257633
657.9596 0.0257634
658.3002 0.0257635
658.6432 0.0257635
658.9858 0.0257635
659.3262 0.0257636
659.6666 0.0257637
660.0081 0.0257638
660.3492 0.025764
660.692 0.0257644
661.0339 0.0257641
661.3751 0.025764
661.7155 0.025764
662.0568 0.025764
662.3981 0.0257641
662.7413 0.0257644
663.082 0.0257644
663.425 0.0257644
663.7674 0.0257644
664.1072 0.0257647
664.4478 0.0257647
664.7897 0.0257644
665.5327 0.0257647
665.8734 0.0257647
666.2138 0.0257646
666.5559 0.0257641
666.8974 0.0257641
667.2392 0.0257639
667.5804 0.0257638
667.9205 0.0257633
668.2628 0.0257633
668.6049 0.0257627
668.9444 0.025762
669.2861 0.025761
669.6262 0.0257604
669.9681 0.0257604
670.31 0.0257604
670.6513 0.0257604
670.991 0.0257604
671.3337 0.0257604
671.6761 0.0257604
672.0164 0.0257604
672.3571 0.0257604
672.6974 0.025761
673.0392 0.0257618
673.3796 0.0257618
673.7196 0.0257621
674.0606 0.0257622
674.4023 0.0257622
674.745 0.0257624
675.086 0.0257628
675.4273 0.0257632
675.7679 0.0257634
676.1087 0.0257635
676.4506 0.0257639
676.7926 0.0257642
677.1352 0.0257649
677.4769 0.0257649
677.8159 0.0257649
678.1584 0.0257649
678.4975 0.0257654
678.8418 0.0257654
679.1829 0.0257654
679.525 0.0257657
679.868 0.0257661
680.2085 0.0257661
680.5499 0.0257661
681.2935 0.0257663
681.6356 0.0257661
681.976 0.0257657
682.3177 0.0257655
682.66 0.0257654
683.0001 0.0257652
683.3429 0.0257646
683.6862 0.0257645
684.0287 0.0257639
684.3712 0.0257633
684.7112 0.0257628
685.0534 0.0257628
685.3956 0.0257628
685.7389 0.0257628
686.0811 0.0257628
686.4234 0.0257628
686.7631 0.0257628
687.1043 0.0257623
687.4449 0.0257608
687.7866 0.0257593
688.1264 0.0257593
688.468 0.0257593
688.8095 0.0257596
689.1505 0.0257596
689.4921 0.0257596
689.8346 0.0257596
690.1749 0.0257598
690.5141 0.0257598
690.8567 0.0257596
691.1983 0.0257592
691.5393 0.0257589
691.8796 0.0257587
692.2197 0.0257585
692.5598 0.0257585
692.9012 0.0257584
693.2441 0.0257582
693.5836 0.0257582
693.9256 0.0257582
694.2677 0.0257579
694.6072 0.0257576
694.9508 0.0257576
695.2912 0.0257576
695.6333 0.0257574
695.9738 0.0257573
696.3146 0.0257571
697.0591 0.0257569
697.3997 0.0257566
697.7407 0.0257563
698.0814 0.0257562
698.4212 0.0257558
698.7637 0.0257555
699.1061 0.0257554
699.4464 0.0257552
699.7878 0.0257547
