69.31117 0.0259344
69.65494 0.0259344
69.99565 0.0259344
70.33785 0.0259344
70.68081 0.0259344
71.02383 0.0259346
71.36892 0.0259347
71.71125 0.0259363
72.05461 0.0259378
72.39714 0.0259379
72.73919 0.0259385
73.08178 0.0259393
73.42371 0.0259397
73.76626 0.0259401
74.10948 0.0259406
74.45436 0.0259408
74.79724 0.0259408
75.1402 0.0259408
75.48631 0.0259408
75.82927 0.0259408
76.17185 0.0259408
76.51525 0.0259408
76.85621 0.0259406
77.19886 0.0259406
77.53933 0.0259405
77.88239 0.0259405
78.22344 0.0259404
78.56718 0.0259403
78.90911 0.0259401
79.65333 0.0259397
79.99616 0.0259394
80.33866 0.025939
80.68108 0.0259384
81.02227 0.025938
81.36479 0.0259377
81.70721 0.0259368
82.05025 0.0259361
82.39141 0.0259358
82.73141 0.0259356
83.07295 0.0259333
83.41367 0.0259296
83.75616 0.0259285
84.09981 0.0259285
84.44137 0.0259285
84.78395 0.0259285
85.12675 0.0259285
85.46718 0.0259285
85.80973 0.0259285
86.15127 0.0259285
86.4952 0.0259285
86.84038 0.0259287
87.18586 0.025929
87.52871 0.0259292
87.86985 0.0259292
88.21019 0.0259292
88.55168 0.0259292
88.89475 0.0259292
89.23627 0.025929
89.57767 0.025929
89.92004 0.025929
90.26257 0.025929
90.60423 0.025929
90.9467 0.0259288
91.28716 0.0259284
91.62828 0.0259281
91.96989 0.0259278
92.31215 0.0259275
92.65307 0.0259272
92.99382 0.0259271
93.33758 0.025927
93.67767 0.0259266
94.02165 0.0259263
94.36319 0.025926
94.70409 0.025925
95.4497 0.025924
95.79021 0.0259238
96.13436 0.0259235
96.47642 0.0259233
96.81967 0.0259231
97.16267 0.0259228
97.50401 0.025922
97.84595 0.0259212
98.1881 0.0259206
98.53078 0.0259197
98.87434 0.0259178
99.21692 0.0259163
99.55817 0.0259163
99.90112 0.0259163
100.2438 0.0259162
100.5871 0.0259162
100.9298 0.0259162
101.2717 0.0259162
101.6131 0.0259155
101.9554 0.0259149
102.2976 0.0259148
102.6379 0.0259148
102.9783 0.0259148
103.3201 0.0259148
103.661 0.0259148
104.0021 0.0259148
104.3439 0.0259148
104.6866 0.0259146
105.0295 0.0259143
105.3722 0.0259139
105.7143 0.0259137
106.0558 0.0259131
106.3986 0.0259131
106.7409 0.0259125
107.0845 0.0259123
107.4269 0.025912
107.7707 0.0259113
108.112 0.0259108
108.4544 0.0259103
108.7947 0.0259095
109.14 0.0259092
109.4834 0.0259092
109.8257 0.0259092
110.1679 0.0259092
110.5099 0.025909
111.2536 0.0259089
111.5944 0.0259089
111.9378 0.0259089
112.2802 0.0259086
112.6234 0.0259083
112.9667 0.0259079
113.3094 0.0259073
113.6516 0.0259066
113.9924 0.0259061
114.3361 0.0259051
114.6782 0.0259021
115.0198 0.0259004
115.3619 0.0258993
115.7082 0.0258992
116.0537 0.0258985
116.3948 0.0258982
116.7391 0.0258981
117.0808 0.0258981
117.4218 0.0258979
117.7667 0.0258976
118.1093 0.0258976
118.448 0.0258979
118.791 0.0258979
119.1335 0.0258981
119.4757 0.0258981
119.8182 0.0258984
120.1592 0.0258987
120.5021 0.0258987
120.8445 0.0258987
121.1858 0.0258989
121.5264 0.0258989
121.8698 0.0258989
122.2115 0.0258991
122.5553 0.0258991
122.8994 0.0258991
123.2422 0.0258993
123.5839 0.0258993
123.9248 0.0258991
124.2677 0.0258991
124.6079 0.0258991
124.9517 0.0258989
125.2946 0.0258987
125.6382 0.0258987
125.9811 0.0258987
126.3237 0.0258989
127.0691 0.025899
127.4114 0.0258987
127.7572 0.0258987
128.1001 0.0258982
128.4427 0.025898
128.7871 0.0258974
129.1295 0.0258964
129.4721 0.0258953
129.8131 0.0258948
130.1561 0.025894
130.5016 0.0258928
130.8431 0.0258927
131.1889 0.0258922
131.5313 0.0258917
131.8714 0.0258909
132.2105 0.0258895
132.5531 0.0258883
132.8949 0.025888
133.2387 0.0258875
133.5819 0.025887
133.9225 0.025887
134.2643 0.025887
134.6053 0.025887
134.9458 0.0258872
135.2864 0.0258872
135.6294 0.0258872
135.9703 0.0258872
136.3135 0.0258872
136.6547 0.0258872
136.997 0.0258872
137.338 0.0258872
137.6806 0.0258872
138.0212 0.0258869
138.3631 0.0258869
138.7073 0.025887
139.0504 0.0258872
139.3929 0.0258874
139.7357 0.0258874
140.0778 0.0258874
140.4187 0.0258874
140.7617 0.0258874
141.1058 0.0258874
141.4472 0.0258874
141.7902 0.0258874
142.1333 0.0258872
142.8787 0.0258868
143.2209 0.0258865
143.5607 0.0258859
143.9018 0.025885
144.2437 0.0258845
144.5852 0.0258843
144.9269 0.0258837
145.2703 0.025883
145.613 0.0258827
145.9545 0.0258819
146.2953 0.0258802
146.6363 0.0258789
146.9793 0.0258783
147.3206 0.025878
147.663 0.0258778
148.0062 0.0258777
148.3488 0.0258775
148.6903 0.0258772
149.0321 0.025877
149.3739 0.0258767
149.7151 0.0258761
150.0578 0.0258761
150.4019 0.0258761
150.7443 0.0258761
151.0895 0.0258767
151.4326 0.0258761
151.7755 0.0258757
152.1174 0.0258755
152.4579 0.0258752
152.8014 0.025875
153.1424 0.025875
153.4906 0.0258749
153.8322 0.0258749
154.1744 0.0258748
154.5158 0.0258745
154.8581 0.0258743
155.202 0.0258737
155.542 0.0258737
155.8852 0.0258737
156.2273 0.0258737
156.573 0.0258732
156.9151 0.0258725
157.2576 0.0258725
157.5999 0.0258719
157.9411 0.0258714
158.6871 0.0258709
159.0286 0.0258708
159.3713 0.0258706
159.7124 0.0258703
160.0568 0.0258702
160.3997 0.0258699
160.7425 0.0258695
161.0854 0.0258691
161.4263 0.0258689
161.7695 0.0258688
162.1118 0.0258682
162.4553 0.025867
162.7982 0.025867
163.1411 0.0258666
163.4844 0.0258661
163.8258 0.025866
164.1673 0.0258656
164.5081 0.0258656
164.8503 0.0258656
165.1933 0.0258656
165.5381 0.0258656
165.8787 0.0258658
166.2196 0.025866
166.5619 0.0258663
166.9041 0.0258664
167.2448 0.0258666
167.5854 0.0258667
167.9274 0.025867
168.2699 0.025867
168.6145 0.025867
168.9562 0.0258667
169.2998 0.0258667
169.6419 0.0258667
169.9832 0.0258666
170.327 0.0258666
170.67 0.0258666
171.0127 0.0258666
171.3553 0.0258666
171.6978 0.0258665
172.0374 0.0258664
172.3789 0.0258655
172.7178 0.0258644
173.0598 0.0258643
173.4029 0.025864
173.7419 0.0258637
174.4914 0.0258636
174.8332 0.0258629
175.1739 0.0258621
175.5162 0.0258619
175.8579 0.0258617
176.203 0.0258615
176.5451 0.0258611
176.8875 0.0258601
177.2273 0.0258592
177.5708 0.025859
177.9124 0.0258586
178.256 0.0258586
178.6008 0.0258583
178.9433 0.0258575
179.2873 0.0258575
179.6296 0.0258567
179.9734 0.0258566
180.3168 0.0258565
180.6581 0.0258565
181.0018 0.0258564
181.3442 0.0258563
181.6886 0.0258563
182.0307 0.0258563
182.3736 0.0258563
182.7192 0.0258563
183.0602 0.0258563
183.4032 0.0258563
183.7451 0.0258561
184.0873 0.025856
184.4298 0.0258554
184.7735 0.0258548
185.117 0.0258544
185.458 0.0258542
185.8027 0.025854
186.1441 0.0258538
186.4871 0.0258535
186.8303 0.0258531
187.1731 0.0258528
187.5144 0.0258525
187.8561 0.0258522
188.1992 0.0258514
188.5405 0.0258506
188.8841 0.0258505
189.2262 0.0258503
189.5691 0.0258501
190.3141 0.0258496
190.657 0.025849
190.9997 0.0258486
191.3407 0.0258485
191.6844 0.0258484
192.0269 0.0258484
192.3688 0.0258484
192.7113 0.0258482
193.0543 0.0258479
193.3957 0.0258472
193.7367 0.0258445
194.0777 0.0258417
194.42 0.0258409
194.7647 0.0258409
195.1072 0.0258409
195.4509 0.0258409
195.7917 0.0258409
196.1354 0.0258409
196.4758 0.0258409
196.8179 0.0258409
197.1604 0.0258405
197.504 0.0258405
197.8467 0.0258405
198.1894 0.0258409
198.5321 0.0258409
198.8749 0.0258409
199.2152 0.0258405
199.5583 0.0258404
199.9033 0.02584
200.2452 0.0258404
200.5898 0.0258406
200.9312 0.0258407
201.2722 0.025841
201.6129 0.0258407
201.9556 0.0258404
202.2987 0.0258402
202.6411 0.02584
202.9824 0.0258399
203.3255 0.0258398
203.6673 0.0258397
204.0081 0.0258397
204.3502 0.0258397
204.6916 0.0258397
205.0357 0.0258396
205.3752 0.0258396
206.1215 0.0258396
206.4639 0.0258394
206.8049 0.0258394
207.1455 0.0258394
207.4885 0.0258392
207.8296 0.0258391
208.1735 0.0258389
208.5152 0.0258384
208.8579 0.025838
209.2006 0.0258378
209.5438 0.0258364
209.8854 0.0258339
210.2673 0.0258321
210.6077 0.0258315
210.9497 0.025831
211.2892 0.0258302
211.6312 0.0258295
211.974 0.0258285
212.3172 0.025828
212.6576 0.0258274
212.999 0.025827
213.3415 0.025827
213.6843 0.025827
214.0258 0.0258274
214.3695 0.0258274
214.7119 0.0258274
215.0547 0.0258274
215.3972 0.025827
215.7393 0.0258269
216.0818 0.0258266
216.4239 0.0258265
216.7662 0.0258265
217.1083 0.0258268
217.4521 0.0258269
217.7947 0.025827
218.1371 0.0258273
218.4779 0.0258274
218.8201 0.0258274
219.1623 0.0258274
219.5073 0.0258276
219.8502 0.0258277
220.1921 0.0258279
220.5342 0.0258281
220.8745 0.0258282
221.2165 0.0258286
221.9607 0.0258289
222.3024 0.0258287
222.6432 0.0258287
222.9849 0.0258287
223.3255 0.0258287
223.6684 0.0258287
224.0104 0.0258283
224.3533 0.0258281
224.6938 0.025828
225.0367 0.025828
225.3775 0.0258281
225.7215 0.0258283
226.0641 0.0258288
226.4058 0.0258287
226.7491 0.0258283
227.0921 0.0258281
227.4354 0.025828
227.7765 0.0258274
228.1213 0.0258274
228.4635 0.0258268
228.8064 0.0258268
229.1491 0.0258268
229.491 0.0258268
229.8318 0.0258268
230.1752 0.0258274
230.5179 0.0258268
230.8601 0.0258267
231.2055 0.0258265
231.5459 0.0258265
231.8869 0.0258265
232.2288 0.0258264
232.5713 0.0258263
232.9411 0.0258263
233.2848 0.0258263
233.6272 0.0258264
233.9697 0.0258263
234.3128 0.025826
234.6557 0.025826
234.9966 0.0258257
235.3379 0.0258256
235.6792 0.0258256
236.019 0.0258256
236.3613 0.0258255
236.7021 0.0258252
237.0436 0.0258251
237.7885 0.025825
238.1285 0.0258249
238.4704 0.0258246
238.8122 0.0258244
239.1543 0.0258241
239.4952 0.0258241
239.8374 0.0258241
240.1774 0.025824
240.5177 0.0258238
240.8596 0.0258227
241.2008 0.0258216
241.544 0.0258205
241.8864 0.0258205
242.2265 0.0258205
242.5688 0.0258199
242.9108 0.0258199
243.2537 0.0258199
243.5941 0.0258199
243.9368 0.0258199
244.2789 0.0258199
244.6234 0.0258199
244.9662 0.0258207
245.3105 0.0258209
245.652 0.0258212
245.9937 0.0258212
246.336 0.0258212
246.676 0.0258213
247.0209 0.0258213
247.364 0.0258216
247.7043 0.0258217
248.0466 0.0258217
248.3871 0.0258217
248.7292 0.0258214
249.072 0.0258211
249.4119 0.0258211
249.7538 0.0258211
250.0978 0.0258211
250.4382 0.0258211
250.7781 0.0258211
251.1194 0.0258211
251.4613 0.025821
251.8033 0.0258208
252.1425 0.0258207
252.4846 0.0258205
252.8263 0.0258204
253.5723 0.0258201
253.9153 0.0258201
254.2568 0.02582
254.5985 0.0258198
254.9376 0.0258193
255.2791 0.0258193
255.6224 0.0258188
255.9657 0.0258181
256.3083 0.0258174
256.6501 0.0258172
256.9908 0.0258161
257.3352 0.0258137
257.6765 0.0258121
258.0185 0.0258116
258.3633 0.0258111
258.7055 0.0258108
259.0458 0.0258105
259.386 0.0258099
259.728 0.0258093
260.0702 0.0258086
260.4122 0.0258079
260.7534 0.0258079
261.0937 0.0258082
261.4341 0.0258082
261.7756 0.0258082
262.1187 0.0258082
262.4598 0.0258082
262.8013 0.0258082
263.143 0.0258082
263.487 0.0258082
263.8282 0.0258082
264.1714 0.0258082
264.5137 0.0258082
264.8538 0.0258087
265.1945 0.0258094
265.5352 0.0258094
265.8774 0.0258096
266.22 0.0258097
266.5618 0.0258098
266.9014 0.0258099
267.2457 0.02581
267.5894 0.0258102
267.932 0.0258103
268.2756 0.0258106
268.6174 0.0258106
269.3617 0.0258106
269.7022 0.0258106
270.0464 0.0258105
270.3857 0.0258103
270.7276 0.0258102
271.0701 0.02581
271.4116 0.02581
271.7538 0.02581
272.0943 0.02581
272.4385 0.0258096
272.7784 0.0258089
273.1183 0.0258073
273.4581 0.0258063
273.7986 0.0258056
274.1393 0.0258056
274.4801 0.0258056
274.8201 0.025805
275.1617 0.025805
275.5019 0.025805
275.8432 0.025805
276.1856 0.025805
276.5286 0.025805
276.8712 0.0258053
277.2139 0.0258056
277.5545 0.0258059
277.8953 0.0258064
278.239 0.0258064
278.5785 0.0258064
278.9189 0.0258064
279.261 0.0258069
279.6038 0.0258068
279.9449 0.0258066
280.2878 0.0258068
280.6263 0.0258068
280.9683 0.0258066
281.3116 0.0258066
281.6548 0.0258068
281.9975 0.0258068
282.3396 0.0258068
282.6838 0.0258069
283.0235 0.0258069
283.3657 0.0258069
283.7072 0.025807
284.0507 0.0258069
284.3921 0.0258069
285.1372 0.0258068
285.4795 0.0258068
285.82 0.0258068
286.163 0.0258068
286.5032 0.0258066
286.8443 0.0258065
287.1862 0.025806
287.5258 0.0258052
287.8664 0.0258048
288.2078 0.0258034
288.5491 0.0258006
288.8902 0.0257995
289.2309 0.0257992
289.5717 0.0257992
289.9143 0.0257988
290.2567 0.0257986
290.5967 0.0257986
290.9368 0.0257984
291.2779 0.0257982
291.6196 0.0257982
291.9613 0.0257982
292.3013 0.0257984
292.6435 0.0257986
292.9827 0.0257987
293.3257 0.0257988
293.6655 0.0257992
294.0062 0.0257998
294.346 0.0258002
294.6854 0.0258005
295.0285 0.0258005
295.3706 0.0258006
295.713 0.0258007
296.0534 0.0258008
296.3956 0.025801
296.7382 0.0258013
297.0814 0.0258014
297.4222 0.0258014
297.7638 0.0258014
298.1037 0.0258014
298.4466 0.0258013
298.7865 0.0258013
299.1271 0.0258013
299.468 0.025801
299.8082 0.0258008
300.1506 0.0258008
300.8933 0.0258008
301.2338 0.0258007
301.5745 0.0258006
301.916 0.0258006
302.2573 0.0258006
302.5976 0.0258005
302.9387 0.0258001
303.2787 0.0257997
303.6202 0.0257994
303.9621 0.0257988
304.304 0.0257985
304.6446 0.0257981
304.9861 0.0257981
305.3288 0.0257979
305.6694 0.0257978
306.0098 0.0257977
306.352 0.0257974
306.6943 0.025797
307.0343 0.025797
307.3747 0.0257967
307.716 0.0257964
308.0582 0.0257967
308.3989 0.025797
308.7402 0.0257974
309.0808 0.0257976
309.4228 0.0257977
309.7631 0.0257978
310.1054 0.0257978
310.4461 0.0257978
310.7882 0.0257979
311.128 0.0257979
311.4675 0.025798
311.81 0.025798
312.152 0.0257984
312.4918 0.0257988
312.8316 0.0257989
313.1734 0.0257989
313.5136 0.0257989
313.8543 0.025799
314.1939 0.025799
314.5353 0.025799
314.8758 0.0257991
315.2157 0.025799
315.5556 0.0257989
315.8974 0.0257988
316.6399 0.0257988
316.9815 0.0257987
317.3226 0.0257987
317.6657 0.0257987
318.0072 0.0257984
318.3486 0.0257981
318.6885 0.025798
319.0302 0.0257976
319.37 0.0257971
319.7116 0.0257967
320.0537 0.0257936
320.394 0.02579
320.734 0.0257889
321.0767 0.0257884
321.4173 0.025788
321.7602 0.0257877
322.1023 0.0257873
322.4443 0.0257871
322.7848 0.0257871
323.1257 0.0257871
323.4672 0.0257871
323.8072 0.0257871
324.1475 0.0257871
324.4881 0.0257871
324.8304 0.0257871
325.1716 0.0257871
325.5135 0.0257871
325.8534 0.0257872
326.1945 0.0257872
326.5355 0.0257874
326.8764 0.0257874
327.2195 0.0257875
327.5608 0.0257877
327.9021 0.0257878
328.2429 0.0257877
328.5833 0.0257879
328.9232 0.0257882
329.2651 0.0257883
329.6071 0.0257884
329.9467 0.0257886
330.2897 0.0257891
330.6317 0.0257897
330.9737 0.0257901
331.3156 0.0257906
331.6561 0.0257908
332.3996 0.0257908
332.7401 0.0257908
333.0807 0.0257906
333.4218 0.0257906
333.764 0.0257906
334.1058 0.0257906
334.4488 0.0257906
334.7899 0.0257906
335.1312 0.0257903
335.472 0.0257903
335.812 0.0257864
336.1549 0.0257824
336.4975 0.0257824
336.8371 0.0257824
337.1773 0.0257824
337.5196 0.0257824
337.8613 0.0257824
338.204 0.0257824
338.5454 0.0257824
338.8849 0.0257824
339.2256 0.0257824
339.5684 0.0257827
339.9102 0.0257838
340.2501 0.0257848
340.5909 0.0257851
340.9312 0.0257852
341.2724 0.0257853
341.615 0.0257853
341.9573 0.0257853
342.2971 0.0257853
342.6381 0.0257853
342.9785 0.0257855
343.3195 0.0257858
343.6607 0.0257856
344.0027 0.0257856
344.3452 0.0257856
344.6851 0.0257856
345.0268 0.0257853
345.3694 0.0257853
345.71 0.0257852
346.0507 0.025785
346.3901 0.0257846
346.7319 0.0257845
347.0732 0.0257844
347.4156 0.0257842
348.1611 0.0257839
348.502 0.0257837
348.8431 0.0257836
349.1823 0.0257834
349.5218 0.0257825
349.8636 0.0257816
350.2057 0.0257814
350.5478 0.0257809
350.8887 0.0257802
351.2286 0.0257793
351.5704 0.0257777
351.9099 0.0257777
352.2511 0.0257777
352.5914 0.0257764
352.9331 0.0257759
353.2738 0.025775
353.6149 0.0257745
353.9571 0.0257743
354.2988 0.0257743
354.6391 0.0257742
354.9794 0.025774
355.322 0.025774
355.6635 0.0257742
356.004 0.0257743
356.3453 0.0257743
356.6856 0.0257743
357.0267 0.0257742
357.3701 0.025774
357.712 0.0257738
358.0547 0.0257736
358.397 0.025773
358.7368 0.0257724
359.0777 0.0257723
359.4183 0.0257722
359.7589 0.025772
360.0985 0.025772
360.4392 0.0257719
360.7793 0.0257716
361.1214 0.0257713
361.4614 0.0257711
361.8035 0.0257703
362.1442 0.0257697
362.4859 0.0257697
362.828 0.0257695
363.1712 0.0257695
363.9156 0.0257695
364.2573 0.0257691
364.5978 0.0257689
364.9378 0.0257689
365.2791 0.0257686
365.6192 0.0257679
365.96 0.0257672
366.3011 0.0257667
366.642 0.0257661
366.9826 0.0257655
367.3223 0.025765
367.6636 0.0257649
368.0054 0.0257649
368.3454 0.0257649
368.6868 0.0257646
369.0276 0.0257646
369.3702 0.0257646
369.7102 0.0257646
370.0516 0.0257646
370.3948 0.0257646
370.7357 0.0257646
371.077 0.0257649
371.4173 0.025765
371.7592 0.0257651
372.1011 0.0257652
372.4421 0.0257652
372.7836 0.0257659
373.126 0.0257669
373.4653 0.0257676
373.8068 0.0257683
374.1473 0.0257689
374.4881 0.0257694
374.8288 0.0257698
375.1694 0.0257701
375.5108 0.0257701
375.8516 0.0257701
376.1937 0.0257701
376.5365 0.0257705
376.8786 0.0257705
377.2183 0.0257706
377.5587 0.0257706
377.8995 0.0257706
378.241 0.0257706
378.5817 0.0257706
378.9239 0.0257705
379.6694 0.0257699
380.0112 0.0257693
380.3532 0.0257689
380.6961 0.0257685
381.0367 0.0257685
381.3791 0.0257685
381.7216 0.0257683
382.0635 0.0257683
382.4056 0.0257679
382.7469 0.0257679
383.089 0.0257676
383.4312 0.0257676
383.7724 0.0257674
384.113 0.0257674
384.4544 0.0257672
384.7944 0.0257672
385.1366 0.0257672
385.4782 0.0257671
385.8192 0.0257671
386.159 0.0257671
386.5001 0.0257671
386.8406 0.0257671
387.1823 0.0257672
387.5248 0.0257672
387.8645 0.0257673
388.2061 0.0257676
388.547 0.0257676
388.8879 0.0257676
389.2282 0.0257679
389.5682 0.025768
389.9107 0.0257686
390.2526 0.0257691
390.5945 0.0257691
390.9359 0.0257692
391.2769 0.0257694
391.6179 0.0257692
391.9595 0.0257692
392.3017 0.0257694
392.6418 0.0257697
392.982 0.0257694
393.3241 0.0257695
393.6641 0.0257697
394.0061 0.02577
394.3461 0.0257704
394.6863 0.0257704
395.4296 0.0257704
395.7699 0.0257704
396.1119 0.02577
396.4535 0.02577
396.7952 0.0257699
397.1349 0.0257697
397.4746 0.0257694
397.8153 0.0257693
398.1559 0.025769
398.4958 0.0257685
398.8381 0.0257665
399.1789 0.025764
399.5221 0.0257637
399.8642 0.0257637
400.2059 0.0257636
400.5473 0.0257634
400.8897 0.0257634
401.2293 0.0257634
401.5698 0.0257634
401.9124 0.0257634
402.2542 0.0257634
402.5952 0.0257636
402.9361 0.0257638
403.279 0.025764
403.6205 0.0257643
403.9621 0.0257651
404.3017 0.0257658
404.6428 0.0257658
404.9839 0.0257658
405.3258 0.0257661
405.6667 0.0257661
406.0088 0.0257662
406.3486 0.0257662
406.6901 0.0257662
407.0307 0.0257662
407.3729 0.0257662
407.7152 0.0257662
408.0553 0.0257659
408.3981 0.0257655
408.7402 0.0257652
409.0813 0.025765
409.4214 0.0257649
409.762 0.0257647
410.1012 0.0257647
410.4439 0.0257644
411.1874 0.0257641
411.5286 0.0257639
411.8694 0.0257639
412.2108 0.0257636
412.5527 0.0257634
412.8933 0.0257631
413.2342 0.0257625
413.5743 0.0257619
413.917 0.0257606
414.2575 0.0257592
414.5991 0.0257575
414.9388 0.0257557
415.2799 0.0257551
415.6218 0.0257548
415.9619 0.0257548
416.3018 0.0257545
416.6436 0.0257541
416.9864 0.0257541
417.3295 0.0257541
417.6718 0.0257541
418.0116 0.0257541
418.3534 0.0257545
418.6952 0.0257548
419.037 0.0257549
419.379 0.0257552
419.7182 0.0257553
420.0601 0.0257553
420.4 0.0257553
420.7419 0.0257553
421.0822 0.0257555
421.4232 0.025756
421.7648 0.025756
422.1051 0.0257567
422.4463 0.025757
422.7879 0.0257571
423.1298 0.0257571
423.4704 0.0257571
423.8112 0.0257571
424.1512 0.025757
424.4923 0.0257569
424.833 0.0257569
425.1751 0.0257567
425.5165 0.0257564
425.8595 0.0257564
426.2017 0.0257559
426.9457 0.0257554
427.2863 0.0257554
427.6276 0.0257551
427.9681 0.0257545
428.3112 0.0257536
428.6538 0.0257532
428.9963 0.025753
429.3377 0.025753
429.6798 0.0257527
430.0201 0.0257522
430.362 0.0257515
430.7024 0.0257509
431.0432 0.0257506
431.3833 0.0257504
431.7241 0.0257504
432.0646 0.0257504
432.4057 0.02575
432.7457 0.0257497
433.0884 0.0257497
433.4301 0.0257497
433.7725 0.0257497
434.1154 0.0257499
434.4561 0.0257502
434.7947 0.0257504
435.1347 0.0257506
435.4759 0.0257508
435.8168 0.025751
436.1583 0.0257512
436.4984 0.0257514
436.8391 0.0257516
437.1797 0.0257518
437.5213 0.0257519
437.8625 0.0257523
438.2027 0.0257528
438.5432 0.0257532
438.885 0.0257532
439.2276 0.0257536
439.5668 0.0257543
439.9095 0.0257549
440.2499 0.0257551
440.5904 0.0257552
440.9304 0.0257553
441.2712 0.0257556
441.6137 0.0257559
441.9556 0.025756
442.698 0.0257574
443.0404 0.0257574
443.3826 0.0257574
443.7225 0.0257574
444.0627 0.0257574
444.4044 0.0257574
444.7461 0.0257574
445.0869 0.0257574
445.4265 0.0257574
445.7671 0.0257573
446.1076 0.0257586
446.4497 0.0257572
446.7923 0.0257552
447.1347 0.0257545
447.4739 0.0257545
447.8155 0.0257543
448.156 0.0257543
448.4971 0.0257539
448.8392 0.0257535
449.1795 0.0257535
449.521 0.0257531
449.8624 0.0257531
450.2035 0.0257535
450.5453 0.0257535
450.8868 0.0257535
451.2308 0.0257535
451.573 0.0257539
451.9149 0.025754
452.258 0.025754
452.5987 0.025754
452.9398 0.025754
453.2826 0.0257539
453.664 0.0257534
454.0052 0.0257534
454.3497 0.025753
454.6923 0.0257528
455.0331 0.0257527
455.3752 0.0257527
455.7152 0.0257527
456.0573 0.0257527
456.4 0.0257527
456.7417 0.0257527
457.081 0.0257527
457.4232 0.0257528
457.7653 0.0257531
458.5089 0.0257535
458.8489 0.025753
459.1901 0.0257525
459.531 0.0257523
459.8734 0.0257515
460.2157 0.0257515
460.5584 0.0257515
460.9018 0.0257515
461.2436 0.0257515
461.5832 0.0257515
461.9216 0.0257515
462.2638 0.0257515
462.604 0.025751
462.9442 0.0257509
463.2865 0.0257498
463.6276 0.0257483
463.966 0.0257482
464.3067 0.0257477
464.6483 0.0257477
464.9902 0.0257472
465.3331 0.0257468
465.673 0.0257468
466.0145 0.0257468
466.3552 0.0257469
466.6985 0.0257469
467.0391 0.0257472
467.3777 0.0257472
467.7201 0.0257469
468.0602 0.0257467
468.401 0.0257465
468.7411 0.0257464
469.0822 0.0257461
469.4232 0.0257457
469.7638 0.0257455
470.1037 0.0257452
470.4443 0.0257449
470.7866 0.0257448
471.1264 0.0257448
471.4676 0.0257448
471.8098 0.0257448
472.151 0.0257449
472.4935 0.0257448
472.8339 0.0257447
473.1759 0.0257447
473.5183 0.0257447
474.2631 0.0257447
474.6047 0.0257447
474.9469 0.0257445
475.2892 0.0257442
475.6319 0.0257442
475.9746 0.0257442
476.3152 0.0257442
476.6557 0.0257442
476.9957 0.0257442
477.3361 0.0257436
477.6778 0.0257436
478.0201 0.0257415
478.3614 0.0257396
478.7026 0.0257396
479.0432 0.0257391
479.3843 0.0257388
479.7256 0.0257385
480.0663 0.0257384
480.4072 0.0257383
480.748 0.0257382
481.0897 0.0257375
481.4322 0.0257375
481.7741 0.0257382
482.1147 0.0257382
482.4592 0.0257382
482.8011 0.0257382
483.1417 0.0257382
483.4825 0.0257382
483.8233 0.0257382
484.1653 0.0257382
484.5084 0.0257382
484.8502 0.0257382
485.191 0.0257387
485.5329 0.0257387
485.875 0.0257392
486.215 0.0257394
486.5567 0.0257398
486.9003 0.0257401
487.2416 0.0257407
487.5823 0.0257412
487.9246 0.0257414
488.2654 0.0257414
488.6058 0.0257417
488.9473 0.0257418
489.2873 0.025742
490.0315 0.0257419
490.3737 0.0257419
490.7151 0.0257416
491.0578 0.0257416
491.3977 0.0257416
491.7377 0.0257414
492.0785 0.0257414
492.4192 0.0257414
492.7616 0.0257414
493.1041 0.0257405
493.447 0.0257405
493.7891 0.0257405
494.1294 0.0257405
494.4705 0.0257405
494.8101 0.0257407
495.1524 0.0257407
495.4951 0.0257418
495.8374 0.0257418
496.18 0.0257416
496.5241 0.0257416
496.8656 0.0257421
497.2076 0.0257422
497.5494 0.0257422
497.8913 0.0257422
498.233 0.0257422
498.5755 0.0257422
498.9177 0.0257422
499.2585 0.0257422
499.6006 0.0257422
499.9415 0.0257422
500.2824 0.0257419
500.6213 0.0257418
500.9634 0.0257415
501.3054 0.0257415
501.6472 0.0257412
501.9903 0.0257412
502.3319 0.0257412
502.6727 0.0257412
503.0146 0.0257411
503.3564 0.0257411
503.6962 0.0257411
504.039 0.0257411
504.3798 0.0257411
504.7207 0.0257411
505.0628 0.0257411
505.809 0.0257409
506.1507 0.0257409
506.4903 0.0257405
506.8309 0.0257405
507.1711 0.0257401
507.5116 0.0257401
507.8544 0.0257401
508.1955 0.0257401
508.5366 0.0257399
508.8779 0.025739
509.2201 0.0257376
509.5631 0.0257375
509.9054 0.025737
510.25 0.0257368
510.5928 0.0257366
510.9338 0.0257363
511.2752 0.0257359
511.6176 0.0257356
511.9588 0.0257356
512.2989 0.0257356
512.641 0.025735
512.9828 0.0257352
513.3275 0.0257356
513.6695 0.0257359
514.0105 0.0257361
514.3512 0.0257363
514.6916 0.0257366
515.0341 0.0257366
515.374 0.0257368
515.7155 0.0257366
516.0555 0.0257366
516.3948 0.0257363
516.736 0.0257361
517.077 0.0257361
517.4178 0.025736
517.7584 0.0257359
518.0999 0.0257359
518.4421 0.0257359
518.7824 0.0257358
519.1228 0.0257358
519.4636 0.0257359
519.805 0.025736
520.1454 0.025736
520.4854 0.0257359
520.8269 0.0257358
521.5727 0.0257357
521.9143 0.0257355
522.2564 0.0257354
522.6013 0.0257352
522.9412 0.0257349
523.2807 0.0257349
523.6223 0.0257347
523.963 0.0257344
524.3036 0.0257343
524.6443 0.0257338
524.9845 0.0257317
525.3256 0.0257302
525.6664 0.02573
526.0072 0.0257296
526.3496 0.0257293
526.6903 0.0257293
527.0351 0.0257292
527.3768 0.0257292
527.7174 0.0257292
528.0574 0.0257292
528.3985 0.0257292
528.7367 0.0257292
529.0789 0.0257292
529.4203 0.0257292
529.7624 0.0257293
530.1029 0.0257293
530.4452 0.0257293
530.7873 0.0257293
531.1269 0.0257293
531.4681 0.0257293
531.8086 0.0257295
532.1494 0.0257295
532.4912 0.0257296
532.8334 0.0257296
533.173 0.0257297
533.5129 0.0257296
533.8537 0.0257296
534.1952 0.0257296
534.5356 0.0257296
534.8771 0.0257296
535.2157 0.0257296
535.5578 0.0257297
535.8997 0.0257297
536.2395 0.0257297
536.58 0.02573
537.3243 0.0257303
537.6661 0.0257303
538.0064 0.0257303
538.3473 0.0257303
538.6879 0.0257303
539.0297 0.0257299
539.3703 0.0257295
539.712 0.0257284
540.0528 0.0257284
540.3952 0.025727
540.7363 0.0257249
541.0774 0.0257239
541.4178 0.0257236
541.7603 0.0257236
542.1016 0.0257236
542.4422 0.0257236
542.784 0.025723
543.1257 0.025723
543.4681 0.025723
543.8088 0.0257229
544.1498 0.0257227
544.49 0.0257227
544.8304 0.0257227
545.1712 0.0257227
545.5139 0.0257227
545.8569 0.0257227
546.1974 0.0257227
546.5378 0.0257224
546.8799 0.0257224
547.2219 0.0257224
547.5621 0.0257224
547.9025 0.0257219
548.2449 0.0257217
548.5865 0.0257217
548.9279 0.0257216
549.2691 0.0257214
549.61 0.0257209
549.9519 0.0257203
550.2964 0.0257203
550.6381 0.0257202
550.9809 0.0257201
551.3224 0.0257199
551.6632 0.0257197
552.0024 0.0257197
552.345 0.0257197
553.0905 0.0257197
553.4328 0.0257197
553.7758 0.0257196
554.117 0.0257196
554.4593 0.0257194
554.7999 0.0257194
555.1389 0.0257194
555.4811 0.0257191
555.8239 0.0257189
556.1654 0.0257181
556.5063 0.0257165
556.8466 0.0257156
557.1885 0.0257156
557.5302 0.0257156
557.8702 0.0257155
558.2108 0.0257155
558.5534 0.0257152
558.8966 0.0257152
559.2382 0.0257152
559.579 0.0257152
559.9192 0.0257152
560.2591 0.0257152
560.601 0.0257152
560.942 0.0257152
561.2819 0.0257155
561.6256 0.0257155
561.9676 0.0257155
562.3088 0.0257155
562.6505 0.0257155
562.9905 0.0257155
563.3323 0.0257153
563.6742 0.0257153
564.0163 0.0257153
564.3562 0.0257153
564.6969 0.0257153
565.0386 0.025715
565.3813 0.0257151
565.7241 0.0257151
566.0653 0.0257151
566.406 0.0257151
566.748 0.0257151
567.0908 0.0257154
567.4329 0.0257155
567.7749 0.0257158
568.1169 0.0257158
568.8613 0.0257161
569.2023 0.0257161
569.5451 0.0257161
569.885 0.0257161
570.2255 0.0257161
570.5675 0.0257161
570.9101 0.0257158
571.2509 0.0257156
571.5936 0.0257149
571.9383 0.0257149
572.2777 0.0257142
572.618 0.0257125
572.9614 0.0257125
573.3036 0.0257125
573.6454 0.0257125
573.9865 0.0257125
574.327 0.0257125
574.6671 0.0257125
575.0076 0.0257125
575.3492 0.0257125
575.6889 0.0257125
576.031 0.0257147
576.3708 0.0257167
576.7115 0.0257176
577.052 0.0257181
577.3914 0.0257183
577.7339 0.0257188
578.076 0.0257192
578.4167 0.0257195
578.7579 0.0257195
579.1007 0.0257198
579.4412 0.0257198
579.784 0.0257198
580.1258 0.0257198
580.4679 0.0257198
580.8105 0.0257198
581.1532 0.0257198
581.4929 0.0257198
581.8347 0.0257198
582.1759 0.0257197
582.5181 0.0257196
582.8581 0.0257196
583.1994 0.0257196
583.5422 0.0257193
583.8843 0.025719
584.6299 0.0257189
584.977 0.0257189
585.3196 0.0257186
585.6613 0.0257177
586.0039 0.0257177
586.3459 0.0257172
586.6878 0.0257172
587.0302 0.0257172
587.37 0.0257172
587.7113 0.0257171
588.0538 0.0257169
588.3957 0.0257165
588.7378 0.0257162
589.0795 0.025716
589.4214 0.025716
589.7614 0.025716
590.104 0.025716
590.4453 0.025716
590.7872 0.025716
591.1272 0.025716
591.4691 0.025716
591.8108 0.0257168
592.153 0.0257179
592.4945 0.0257185
592.8364 0.0257186
593.1755 0.0257186
593.5171 0.0257186
593.8584 0.0257186
594.1983 0.0257184
594.5392 0.0257184
594.879 0.0257184
595.2198 0.0257184
595.558 0.0257186
595.8986 0.0257188
596.2414 0.0257188
596.5839 0.0257188
596.9233 0.0257189
597.2655 0.025719
597.6068 0.0257192
597.9503 0.0257192
598.2922 0.0257192
598.6341 0.0257192
598.9741 0.0257192
599.3166 0.025719
599.6588 0.0257192
600.4031 0.0257196
600.7462 0.0257196
601.0877 0.0257196
601.4281 0.0257196
601.7695 0.0257196
602.1093 0.0257196
602.4503 0.0257196
602.793 0.0257192
603.1338 0.0257192
603.4747 0.0257189
603.8154 0.0257189
604.1567 0.0257189
604.4975 0.0257187
604.8397 0.0257187
605.1821 0.0257187
605.5229 0.0257187
605.8655 0.0257187
606.2076 0.0257185
606.5471 0.0257181
606.8891 0.0257176
607.2305 0.0257169
607.5736 0.0257169
607.9158 0.0257169
608.2552 0.0257169
608.597 0.0257169
608.9384 0.0257169
609.2795 0.0257169
609.6226 0.0257169
609.9646 0.0257165
610.305 0.0257148
610.6454 0.0257138
610.9875 0.0257131
611.328 0.0257125
611.6679 0.0257122
612.0093 0.025712
612.3521 0.025712
612.6941 0.0257119
613.035 0.0257118
613.3754 0.0257116
613.7178 0.0257113
614.0577 0.0257116
614.3998 0.0257116
614.7403 0.0257116
615.0799 0.0257116
615.4196 0.0257118
616.165 0.0257116
616.5062 0.0257113
616.8465 0.0257111
617.1876 0.025711
617.5279 0.025711
617.8697 0.025711
618.2097 0.025711
618.5501 0.0257108
618.8916 0.0257104
619.2319 0.0257094
619.5741 0.025707
619.9149 0.025705
620.258 0.0257048
620.5997 0.0257048
620.9406 0.0257048
621.2837 0.0257048
621.6268 0.0257048
621.9694 0.0257048
622.3112 0.0257048
622.6538 0.0257048
622.9959 0.0257048
623.3369 0.025705
623.6792 0.025706
624.0217 0.025707
624.3643 0.0257075
624.7063 0.0257082
625.0488 0.0257089
625.3916 0.0257098
625.7329 0.0257103
626.0734 0.0257106
626.4137 0.0257122
626.756 0.0257138
627.0969 0.025714
627.438 0.0257142
627.7787 0.0257145
628.1188 0.0257145
628.459 0.0257145
628.7988 0.0257145
629.1406 0.0257145
629.4817 0.0257145
629.8242 0.0257145
630.164 0.0257145
630.506 0.0257145
630.8464 0.0257145
631.1865 0.0257144
631.9306 0.0257144
632.2734 0.0257141
632.6134 0.0257137
632.9537 0.0257131
633.2943 0.0257127
633.635 0.0257125
633.9753 0.0257123
634.3163 0.0257123
634.6585 0.0257116
635.0 0.0257116
635.3413 0.0257115
635.6817 0.0257111
636.0243 0.0257113
636.3654 0.0257117
636.7048 0.0257117
637.0472 0.0257113
637.3895 0.0257108
637.732 0.0257105
638.0723 0.0257105
638.4129 0.0257105
638.7532 0.0257104
639.095 0.0257104
639.4371 0.0257105
639.7778 0.0257109
640.1177 0.0257109
640.4577 0.0257109
640.7986 0.0257109
641.1388 0.0257112
641.48 0.0257113
641.8207 0.0257113
642.1614 0.0257113
642.5031 0.0257116
642.8445 0.0257119
643.1872 0.0257115
643.5306 0.0257109
643.872 0.0257115
644.2129 0.0257117
644.5533 0.025712
644.8948 0.0257119
645.235 0.0257121
645.5773 0.0257121
645.9184 0.0257122
646.2607 0.0257121
646.6011 0.0257121
646.9414 0.0257121
647.6855 0.0257121
648.0278 0.0257121
648.3677 0.0257121
648.7075 0.0257119
649.0543 0.0257112
649.3963 0.0257107
649.7389 0.0257105
650.0788 0.0257104
650.4185 0.0257099
650.7603 0.0257092
651.1005 0.0257087
651.4426 0.0257083
651.7851 0.0257083
652.1266 0.025708
652.469 0.025708
652.8083 0.025708
653.1505 0.025708
653.4928 0.0257079
653.8343 0.0257079
654.1766 0.0257075
654.5203 0.0257075
654.8612 0.0257079
655.203 0.0257079
655.5452 0.0257079
655.8865 0.025708
656.2262 0.025708
656.567 0.025708
656.907 0.025708
657.2493 0.025708
657.5921 0.025708
657.9345 0.0257076
658.2756 0.0257072
658.6168 0.0257068
658.9586 0.0257064
659.3011 0.025706
659.6427 0.0257056
659.984 0.0257052
660.3254 0.0257044
660.6659 0.0257034
661.0053 0.0257028
661.3457 0.0257025
661.6875 0.0257025
662.0301 0.0257025
662.3701 0.0257021
662.7112 0.0257021
663.4542 0.0257021
663.7954 0.0257009
664.1359 0.0256997
664.4766 0.0256992
664.8177 0.0256988
665.1591 0.0256984
665.4995 0.0256984
665.8417 0.0256988
666.1844 0.0256996
666.5264 0.0257007
666.8665 0.0257016
667.2066 0.0257016
667.5472 0.0257016
667.8896 0.0257016
668.2316 0.0257016
668.5732 0.0257014
668.9155 0.0257014
669.2577 0.025701
669.5999 0.0257005
669.9395 0.0257002
670.2811 0.0257
670.6232 0.0257
670.9646 0.0257
671.3069 0.0257
671.6488 0.0257
671.9906 0.0257
672.3334 0.0257002
672.6767 0.0257002
673.0173 0.0257002
673.358 0.0257
673.7004 0.0256999
674.0428 0.0256999
674.3848 0.0256999
674.7264 0.0256999
675.0687 0.0256999
675.4106 0.0256999
675.7519 0.0256999
676.0941 0.0257004
676.4331 0.025701
676.7741 0.0257014
677.1165 0.0257017
677.4592 0.0257019
677.8007 0.0257024
678.1409 0.0257028
678.481 0.0257028
679.2261 0.0257028
679.5659 0.0257028
679.9056 0.0257024
680.2458 0.0257024
680.5876 0.0257024
680.9301 0.0257024
681.271 0.0257024
681.6105 0.0257022
681.9516 0.0257019
682.2943 0.0257011
682.6366 0.0257009
682.9765 0.0257007
683.3192 0.0257005
683.6608 0.0257005
684.002 0.0257005
684.3421 0.0257005
684.6828 0.0257004
685.022 0.0257004
685.3624 0.0257004
685.7076 0.0257004
686.049 0.0257004
686.3912 0.0257007
686.7309 0.025701
687.0723 0.0257011
687.413 0.0257011
687.7534 0.0257011
688.095 0.0257011
688.4355 0.0257011
688.7782 0.0257011
689.1185 0.0257012
689.4595 0.025701
689.7996 0.025701
690.1402 0.025701
690.4794 0.0257009
690.8223 0.0257008
691.1653 0.0257006
691.5064 0.0257006
691.8491 0.0257001
692.1928 0.0256999
692.5351 0.0256996
692.8777 0.0256993
693.2193 0.0256991
693.5609 0.0256988
693.9005 0.0256988
694.2414 0.0256984
694.9853 0.0256982
695.326 0.0256981
695.6658 0.0256979
696.0077 0.0256976
696.3492 0.0256974
696.6907 0.0256974
697.0334 0.0256974
697.3729 0.025697
697.7545 0.0256965
698.0948 0.025696
698.437 0.0256931
698.7769 0.0256902
699.1183 0.0256899
699.4588 0.0256899
699.7999 0.0256899
