19.997330280 2970.0
20.023590845 2873.0
20.049851410 2958.0
20.076111975 2923.0
20.102372540 2933.0
20.128633105 2881.0
20.154893670 2894.0
20.181154235 2833.0
20.207414800 2897.0
20.233675365 2950.0
20.259935930 2882.0
20.286196495 2929.0
20.312457060 2808.0
20.338717625 3030.0
20.364978190 2847.0
20.391238755 2828.0
20.417499320 2911.0
20.443759885 2821.0
20.470020450 2865.0
20.496281015 2966.0
20.522541580 2856.0
20.548802145 2932.0
20.575062710 2832.0
20.601323275 2809.0
20.627583840 2800.0
20.653844405 2808.0
20.680104970 2790.0
20.706365535 2825.0
20.732626100 2833.0
20.758886665 2769.0
20.785147230 2755.0
20.811407795 2764.0
20.837668360 2860.0
20.863928925 2846.0
20.890189490 2704.0
20.916450055 2806.0
20.942710620 2755.0
20.968971185 2782.0
20.995231750 2793.0
21.021492315 2895.0
21.047752880 2944.0
21.074013445 2811.0
21.100274010 2832.0
21.126534575 2852.0
21.152795140 2747.0
21.179055705 2885.0
21.205316270 2740.0
21.231576835 2766.0
21.257837400 2755.0
21.284097965 2793.0
21.310358530 2820.0
21.336619095 2746.0
21.362879660 2697.0
21.389140225 2746.0
21.415400790 2795.0
21.441661355 2697.0
21.467921920 2742.0
21.494182485 2763.0
21.520443051 2730.0
21.546703616 2674.0
21.572964181 2657.0
21.599224746 2727.0
21.625485311 2845.0
21.651745876 2613.0
21.678006441 2759.0
21.704267006 2794.0
21.730527571 2733.0
21.756788136 2665.0
21.783048701 2715.0
21.809309266 2695.0
21.835569831 2680.0
21.861830396 2690.0
21.888090961 2699.0
21.914351526 2683.0
21.940612091 2634.0
21.966872656 2628.0
21.993133221 2792.0
22.019393786 2696.0
22.045654351 2693.0
22.071914916 2653.0
22.098175481 2655.0
22.124436046 2684.0
22.150696611 2661.0
22.176957176 2597.0
22.203217741 2598.0
22.229478306 2658.0
22.255738871 2724.0
22.281999436 2575.0
22.308260001 2640.0
22.334520566 2641.0
22.360781131 2670.0
22.387041696 2737.0
22.413302261 2717.0
22.439562826 2699.0
22.465823391 2608.0
22.492083956 2730.0
22.518344521 2633.0
22.544605086 2619.0
22.570865651 2611.0
22.597126216 2777.0
22.623386781 2798.0
22.649647346 2739.0
22.675907911 2725.0
22.702168476 2623.0
22.728429041 2698.0
22.754689606 2665.0
22.780950171 2739.0
22.807210736 2705.0
22.833471301 2724.0
22.859731866 2772.0
22.885992431 2646.0
22.912252996 2583.0
22.938513561 2608.0
22.964774126 2703.0
22.991034691 2792.0
23.017295256 2731.0
23.043555821 2791.0
23.069816386 2748.0
23.096076951 2735.0
23.122337516 2653.0
23.148598081 2756.0
23.174858646 2692.0
23.201119211 2763.0
23.227379776 2808.0
23.253640341 2684.0
23.279900906 2631.0
23.306161471 2861.0
23.332422036 2699.0
23.358682601 2823.0
23.384943166 2749.0
23.411203731 2896.0
23.437464296 2836.0
23.463724861 2781.0
23.489985426 2854.0
23.516245991 2790.0
23.542506556 2857.0
23.568767121 2801.0
23.595027686 2950.0
23.621288251 2929.0
23.647548816 2943.0
23.673809381 2942.0
23.700069946 2995.0
23.726330511 3046.0
23.752591076 2993.0
23.778851641 3099.0
23.805112206 3097.0
23.831372771 3207.0
23.857633336 3257.0
23.883893901 3243.0
23.910154466 3436.0
23.936415031 3420.0
23.962675596 3463.0
23.988936161 3718.0
24.015196726 3735.0
24.041457291 3929.0
24.067717856 4068.0
24.093978421 4084.0
24.120238986 4219.0
24.146499551 4264.0
24.172760116 4514.0
24.199020681 4578.0
24.225281246 4769.0
24.251541811 4898.0
24.277802376 4936.0
24.304062941 5171.0
24.330323506 5197.0
24.356584071 5203.0
24.382844636 5343.0
24.409105201 5378.0
24.435365766 5441.0
24.461626331 5369.0
24.487886896 5102.0
24.514147462 5095.0
24.540408027 5135.0
24.566668592 4934.0
24.592929157 4921.0
24.619189722 4854.0
24.645450287 4867.0
24.671710852 4580.0
24.697971417 4528.0
24.724231982 4699.0
24.750492547 4528.0
24.776753112 4689.0
24.803013677 4829.0
24.829274242 4716.0
24.855534807 4758.0
24.881795372 4942.0
24.908055937 5048.0
24.934316502 5157.0
24.960577067 5171.0
24.986837632 5199.0
25.013098197 5340.0
25.039358762 5223.0
25.065619327 5346.0
25.091879892 5377.0
25.118140457 5038.0
25.144401022 5034.0
25.170661587 4843.0
25.196922152 4657.0
25.223182717 4508.0
25.249443282 4268.0
25.275703847 4052.0
25.301964412 3945.0
25.328224977 3666.0
25.354485542 3608.0
25.380746107 3479.0
25.407006672 3396.0
25.433267237 3249.0
25.459527802 3205.0
25.485788367 3186.0
25.512048932 3101.0
25.538309497 2956.0
25.564570062 3025.0
25.590830627 2966.0
25.617091192 2846.0
25.643351757 2886.0
25.669612322 2860.0
25.695872887 2824.0
25.722133452 2792.0
25.748394017 2776.0
25.774654582 2869.0
25.800915147 2674.0
25.827175712 2795.0
25.853436277 2716.0
25.879696842 2763.0
25.905957407 2723.0
25.932217972 2737.0
25.958478537 2737.0
25.984739102 2699.0
26.010999667 2707.0
26.037260232 2676.0
26.063520797 2574.0
26.089781362 2659.0
26.116041927 2672.0
26.142302492 2612.0
26.168563057 2593.0
26.194823622 2622.0
26.221084187 2728.0
26.247344752 2615.0
26.273605317 2766.0
26.299865882 2675.0
26.326126447 2767.0
26.352387012 2685.0
26.378647577 2638.0
26.404908142 2689.0
26.431168707 2705.0
26.457429272 2671.0
26.483689837 2644.0
26.509950402 2682.0
26.536210967 2742.0
26.562471532 2728.0
26.588732097 2798.0
26.614992662 2697.0
26.641253227 2770.0
26.667513792 2792.0
26.693774357 2782.0
26.720034922 2795.0
26.746295487 2641.0
26.772556052 2766.0
26.798816617 2977.0
26.825077182 3028.0
26.851337747 2971.0
26.877598312 3006.0
26.903858877 2890.0
26.930119442 2965.0
26.956380007 2966.0
26.982640572 3020.0
27.008901137 3046.0
27.035161702 3022.0
27.061422267 3035.0
27.087682832 3117.0
27.113943397 3097.0
27.140203962 3155.0
27.166464527 3209.0
27.192725092 3265.0
27.218985657 3279.0
27.245246222 3431.0
27.271506787 3476.0
27.297767352 3488.0
27.324027917 3558.0
27.350288482 3742.0
27.376549047 3866.0
27.402809612 4009.0
27.429070177 4094.0
27.455330742 4055.0
27.481591307 4429.0
27.507851873 4716.0
27.534112438 4971.0
27.560373003 5189.0
27.586633568 5580.0
27.612894133 6060.0
27.639154698 6327.0
27.665415263 6692.0
27.691675828 7219.0
27.717936393 7741.0
27.744196958 8439.0
27.770457523 8973.0
27.796718088 9477.0
27.822978653 9829.0
27.849239218 10233.0
27.875499783 10702.0
27.901760348 10728.0
27.928020913 10817.0
27.954281478 10668.0
27.980542043 10318.0
28.006802608 9921.0
28.033063173 9626.0
28.059323738 9088.0
28.085584303 8513.0
28.111844868 8020.0
28.138105433 7342.0
28.164365998 6694.0
28.190626563 6156.0
28.216887128 5802.0
28.243147693 5374.0
28.269408258 5016.0
28.295668823 4711.0
28.321929388 4363.0
28.348189953 4224.0
28.374450518 3994.0
28.400711083 3755.0
28.426971648 3618.0
28.453232213 3487.0
28.479492778 3398.0
28.505753343 3286.0
28.532013908 3123.0
28.558274473 3128.0
28.584535038 3034.0
28.610795603 2856.0
28.637056168 2837.0
28.663316733 2790.0
28.689577298 2909.0
28.715837863 2816.0
28.742098428 2735.0
28.768358993 2834.0
28.794619558 2753.0
28.820880123 2698.0
28.847140688 2518.0
28.873401253 2622.0
28.899661818 2518.0
28.925922383 2538.0
28.952182948 2441.0
28.978443513 2401.0
29.004704078 2497.0
29.030964643 2438.0
29.057225208 2439.0
29.083485773 2318.0
29.109746338 2315.0
29.136006903 2390.0
29.162267468 2372.0
29.188528033 2372.0
29.214788598 2311.0
29.241049163 2306.0
29.267309728 2324.0
29.293570293 2235.0
29.319830858 2293.0
29.346091423 2345.0
29.372351988 2228.0
29.398612553 2177.0
29.424873118 2201.0
29.451133683 2225.0
29.477394248 2176.0
29.503654813 2233.0
29.529915378 2160.0
29.556175943 2157.0
29.582436508 2139.0
29.608697073 2162.0
29.634957638 2186.0
29.661218203 2099.0
29.687478768 2193.0
29.713739333 2156.0
29.739999898 2157.0
29.766260463 2102.0
29.792521028 2170.0
29.818781593 2075.0
29.845042158 2102.0
29.871302723 2073.0
29.897563288 2070.0
29.923823853 2096.0
29.950084418 2163.0
29.976344983 2100.0
30.002605548 2025.0
30.028866113 2087.0
30.055126678 2093.0
30.081387243 2034.0
30.107647808 2075.0
30.133908373 2061.0
30.160168938 2036.0
30.186429503 1989.0
30.212690068 2073.0
30.238950633 2050.0
30.265211198 2083.0
30.291471763 1989.0
30.317732328 1951.0
30.343992893 2020.0
30.370253458 2068.0
30.396514023 2047.0
30.422774588 2022.0
30.449035153 1983.0
30.475295718 1991.0
30.501556284 1950.0
30.527816849 1981.0
30.554077414 1962.0
30.580337979 1978.0
30.606598544 1924.0
30.632859109 1861.0
30.659119674 1908.0
30.685380239 1895.0
30.711640804 1866.0
30.737901369 1918.0
30.764161934 1953.0
30.790422499 1900.0
30.816683064 1970.0
30.842943629 1834.0
30.869204194 1940.0
30.895464759 1897.0
30.921725324 1876.0
30.947985889 1792.0
30.974246454 1962.0
31.000507019 1858.0
31.026767584 1898.0
31.053028149 1950.0
31.079288714 1889.0
31.105549279 1830.0
31.131809844 1839.0
31.158070409 1824.0
31.184330974 1866.0
31.210591539 1745.0
31.236852104 1853.0
31.263112669 1797.0
31.289373234 1773.0
31.315633799 1804.0
31.341894364 1878.0
31.368154929 1736.0
31.394415494 1825.0
31.420676059 1773.0
31.446936624 1803.0
31.473197189 1785.0
31.499457754 1772.0
31.525718319 1750.0
31.551978884 1750.0
31.578239449 1744.0
31.604500014 1783.0
31.630760579 1835.0
31.657021144 1806.0
31.683281709 1738.0
31.709542274 1796.0
31.735802839 1680.0
31.762063404 1723.0
31.788323969 1648.0
31.814584534 1727.0
31.840845099 1753.0
31.867105664 1771.0
31.893366229 1711.0
31.919626794 1679.0
31.945887359 1744.0
31.972147924 1750.0
31.998408489 1751.0
32.024669054 1790.0
32.050929619 1738.0
32.077190184 1768.0
32.103450749 1716.0
32.129711314 1664.0
32.155971879 1748.0
32.182232444 1713.0
32.208493009 1769.0
32.234753574 1724.0
32.261014139 1677.0
32.287274704 1669.0
32.313535269 1673.0
32.339795834 1742.0
32.366056399 1693.0
32.392316964 1750.0
32.418577529 1735.0
32.444838094 1675.0
32.471098659 1665.0
32.497359224 1678.0
32.523619789 1676.0
32.549880354 1665.0
32.576140919 1671.0
32.602401484 1651.0
32.628662049 1656.0
32.654922614 1653.0
32.681183179 1676.0
32.707443744 1708.0
32.733704309 1728.0
32.759964874 1636.0
32.786225439 1710.0
32.812486004 1651.0
32.838746569 1695.0
32.865007134 1621.0
32.891267699 1612.0
32.917528264 1641.0
32.943788829 1690.0
32.970049394 1629.0
32.996309959 1649.0
33.022570524 1662.0
33.048831089 1615.0
33.075091654 1640.0
33.101352219 1650.0
33.127612784 1704.0
33.153873349 1666.0
33.180133914 1647.0
33.206394479 1583.0
33.232655044 1622.0
33.258915609 1707.0
33.285176174 1679.0
33.311436739 1661.0
33.337697304 1627.0
33.363957869 1625.0
33.390218434 1635.0
33.416478999 1605.0
33.442739564 1589.0
33.469000129 1644.0
33.495260695 1660.0
33.521521260 1583.0
33.547781825 1658.0
33.574042390 1550.0
33.600302955 1609.0
33.626563520 1642.0
33.652824085 1573.0
33.679084650 1674.0
33.705345215 1550.0
33.731605780 1669.0
33.757866345 1604.0
33.784126910 1776.0
33.810387475 1595.0
33.836648040 1553.0
33.862908605 1543.0
33.889169170 1530.0
33.915429735 1595.0
33.941690300 1583.0
33.967950865 1597.0
33.994211430 1657.0
34.020471995 1654.0
34.046732560 1629.0
34.072993125 1601.0
34.099253690 1622.0
34.125514255 1605.0
34.151774820 1589.0
34.178035385 1567.0
34.204295950 1606.0
34.230556515 1584.0
34.256817080 1614.0
34.283077645 1588.0
34.309338210 1633.0
34.335598775 1614.0
34.361859340 1564.0
34.388119905 1688.0
34.414380470 1617.0
34.440641035 1599.0
34.466901600 1627.0
34.493162165 1570.0
34.519422730 1633.0
34.545683295 1662.0
34.571943860 1619.0
34.598204425 1618.0
34.624464990 1567.0
34.650725555 1596.0
34.676986120 1684.0
34.703246685 1673.0
34.729507250 1673.0
34.755767815 1683.0
34.782028380 1713.0
34.808288945 1772.0
34.834549510 1679.0
34.860810075 1724.0
34.887070640 1720.0
34.913331205 1859.0
34.939591770 1789.0
34.965852335 1830.0
34.992112900 1858.0
35.018373465 1966.0
35.044634030 1936.0
35.070894595 1947.0
35.097155160 2072.0
35.123415725 2150.0
35.149676290 2159.0
35.175936855 2094.0
35.202197420 2280.0
35.228457985 2235.0
35.254718550 2045.0
35.280979115 2185.0
35.307239680 2207.0
35.333500245 2064.0
35.359760810 2184.0
35.386021375 2144.0
35.412281940 2063.0
35.438542505 2008.0
35.464803070 1941.0
35.491063635 1953.0
35.517324200 1900.0
35.543584765 1757.0
35.569845330 1834.0
35.596105895 1808.0
35.622366460 1833.0
35.648627025 1783.0
35.674887590 1695.0
35.701148155 1737.0
35.727408720 1753.0
35.753669285 1650.0
35.779929850 1646.0
35.806190415 1664.0
35.832450980 1626.0
35.858711545 1577.0
35.884972110 1636.0
35.911232675 1576.0
35.937493240 1587.0
35.963753805 1545.0
35.990014370 1646.0
36.016274935 1505.0
36.042535500 1514.0
36.068796065 1595.0
36.095056630 1498.0
36.121317195 1558.0
36.147577760 1506.0
36.173838325 1543.0
36.200098890 1473.0
36.226359455 1533.0
36.252620020 1590.0
36.278880585 1505.0
36.305141150 1473.0
36.331401715 1481.0
36.357662280 1606.0
36.383922845 1515.0
36.410183410 1451.0
36.436443975 1462.0
36.462704540 1451.0
36.488965105 1516.0
36.515225671 1599.0
36.541486236 1603.0
36.567746801 1536.0
36.594007366 1490.0
36.620267931 1434.0
36.646528496 1433.0
36.672789061 1432.0
36.699049626 1474.0
36.725310191 1508.0
36.751570756 1485.0
36.777831321 1430.0
36.804091886 1495.0
36.830352451 1478.0
36.856613016 1447.0
36.882873581 1553.0
36.909134146 1473.0
36.935394711 1515.0
36.961655276 1457.0
36.987915841 1549.0
37.014176406 1558.0
37.040436971 1540.0
37.066697536 1481.0
37.092958101 1472.0
37.119218666 1521.0
37.145479231 1484.0
37.171739796 1544.0
37.198000361 1497.0
37.224260926 1534.0
37.250521491 1441.0
37.276782056 1515.0
37.303042621 1517.0
37.329303186 1530.0
37.355563751 1473.0
37.381824316 1495.0
37.408084881 1496.0
37.434345446 1445.0
37.460606011 1405.0
37.486866576 1463.0
37.513127141 1475.0
37.539387706 1520.0
37.565648271 1588.0
37.591908836 1501.0
37.618169401 1492.0
37.644429966 1448.0
37.670690531 1446.0
37.696951096 1553.0
37.723211661 1468.0
37.749472226 1572.0
37.775732791 1438.0
37.801993356 1565.0
37.828253921 1406.0
37.854514486 1444.0
37.880775051 1474.0
37.907035616 1493.0
37.933296181 1376.0
37.959556746 1428.0
37.985817311 1524.0
38.012077876 1491.0
38.038338441 1532.0
38.064599006 1489.0
38.090859571 1450.0
38.117120136 1506.0
38.143380701 1551.0
38.169641266 1502.0
38.195901831 1411.0
38.222162396 1498.0
38.248422961 1463.0
38.274683526 1558.0
38.300944091 1473.0
38.327204656 1475.0
38.353465221 1473.0
38.379725786 1547.0
38.405986351 1419.0
38.432246916 1429.0
38.458507481 1445.0
38.484768046 1528.0
38.511028611 1445.0
38.537289176 1475.0
38.563549741 1398.0
38.589810306 1464.0
38.616070871 1507.0
38.642331436 1458.0
38.668592001 1440.0
38.694852566 1407.0
38.721113131 1441.0
38.747373696 1479.0
38.773634261 1410.0
38.799894826 1467.0
38.826155391 1447.0
38.852415956 1456.0
38.878676521 1462.0
38.904937086 1473.0
38.931197651 1381.0
38.957458216 1456.0
38.983718781 1481.0
39.009979346 1477.0
39.036239911 1498.0
39.062500476 1484.0
39.088761041 1459.0
39.115021606 1443.0
39.141282171 1359.0
39.167542736 1418.0
39.193803301 1469.0
39.220063866 1414.0
39.246324431 1482.0
39.272584996 1427.0
39.298845561 1486.0
39.325106126 1457.0
39.351366691 1444.0
39.377627256 1451.0
39.403887821 1480.0
39.430148386 1390.0
39.456408951 1451.0
39.482669516 1559.0
39.508930082 1828.0
39.535190647 1464.0
39.561451212 1394.0
39.587711777 1507.0
39.613972342 1672.0
39.640232907 1538.0
39.666493472 1446.0
39.692754037 1451.0
39.719014602 1448.0
39.745275167 1446.0
39.771535732 1397.0
39.797796297 1394.0
39.824056862 1369.0
39.850317427 1475.0
39.876577992 1382.0
39.902838557 1402.0
39.929099122 1485.0
39.955359687 1434.0
39.981620252 1444.0
40.007880817 1436.0
40.034141382 1433.0
40.060401947 1395.0
40.086662512 1466.0
40.112923077 1490.0
40.139183642 1434.0
40.165444207 1435.0
40.191704772 1418.0
40.217965337 1412.0
40.244225902 1464.0
40.270486467 1461.0
40.296747032 1448.0
40.323007597 1409.0
40.349268162 1389.0
40.375528727 1462.0
40.401789292 1506.0
40.428049857 1433.0
40.454310422 1407.0
40.480570987 1427.0
40.506831552 1343.0
40.533092117 1547.0
40.559352682 1450.0
40.585613247 1474.0
40.611873812 1489.0
40.638134377 1483.0
40.664394942 1527.0
40.690655507 1525.0
40.716916072 1499.0
40.743176637 1484.0
40.769437202 1455.0
40.795697767 1438.0
40.821958332 1453.0
40.848218897 1457.0
40.874479462 1512.0
40.900740027 1439.0
40.927000592 1471.0
40.953261157 1544.0
40.979521722 1454.0
41.005782287 1393.0
41.032042852 1404.0
41.058303417 1427.0
41.084563982 1480.0
41.110824547 1408.0
41.137085112 1413.0
41.163345677 1381.0
41.189606242 1532.0
41.215866807 1427.0
41.242127372 1385.0
41.268387937 1399.0
41.294648502 1386.0
41.320909067 1477.0
41.347169632 1425.0
41.373430197 1409.0
41.399690762 1422.0
41.425951327 1450.0
41.452211892 1528.0
41.478472457 1439.0
41.504733022 1372.0
41.530993587 1428.0
41.557254152 1417.0
41.583514717 1447.0
41.609775282 1396.0
41.636035847 1462.0
41.662296412 1474.0
41.688556977 1410.0
41.714817542 1439.0
41.741078107 1393.0
41.767338672 1430.0
41.793599237 1474.0
41.819859802 1489.0
41.846120367 1549.0
41.872380932 1418.0
41.898641497 1467.0
41.924902062 1429.0
41.951162627 1492.0
41.977423192 1465.0
42.003683757 1474.0
42.029944322 1417.0
42.056204887 1395.0
42.082465452 1458.0
42.108726017 1537.0
42.134986582 1461.0
42.161247147 1492.0
42.187507712 1448.0
42.213768277 1451.0
42.240028842 1402.0
42.266289407 1394.0
42.292549972 1493.0
42.318810537 1534.0
42.345071102 1446.0
42.371331667 1521.0
42.397592232 1558.0
42.423852797 1510.0
42.450113362 1505.0
42.476373927 1553.0
42.502634493 1572.0
42.528895058 1553.0
42.555155623 1566.0
42.581416188 1496.0
42.607676753 1548.0
42.633937318 1504.0
42.660197883 1534.0
42.686458448 1552.0
42.712719013 1528.0
42.738979578 1570.0
42.765240143 1580.0
42.791500708 1645.0
42.817761273 1552.0
42.844021838 1587.0
42.870282403 1598.0
42.896542968 1664.0
42.922803533 1612.0
42.949064098 1631.0
42.975324663 1634.0
43.001585228 1676.0
43.027845793 1669.0
43.054106358 1708.0
43.080366923 1773.0
43.106627488 1636.0
43.132888053 1758.0
43.159148618 1719.0
43.185409183 1732.0
43.211669748 1786.0
43.237930313 1885.0
43.264190878 1812.0
43.290451443 1823.0
43.316712008 1908.0
43.342972573 1914.0
43.369233138 1952.0
43.395493703 1857.0
43.421754268 1994.0
43.448014833 2086.0
43.474275398 2090.0
43.500535963 2127.0
43.526796528 2229.0
43.553057093 2275.0
43.579317658 2302.0
43.605578223 2328.0
43.631838788 2506.0
43.658099353 2572.0
43.684359918 2597.0
43.710620483 2735.0
43.736881048 2934.0
43.763141613 3079.0
43.789402178 3224.0
43.815662743 3537.0
43.841923308 3771.0
43.868183873 3876.0
43.894444438 4429.0
43.920705003 4346.0
43.946965568 4745.0
43.973226133 5065.0
43.999486698 5320.0
44.025747263 5748.0
44.052007828 5739.0
44.078268393 5901.0
44.104528958 6018.0
44.130789523 6079.0
44.157050088 6124.0
44.183310653 5850.0
44.209571218 5727.0
44.235831783 5390.0
44.262092348 5255.0
44.288352913 4962.0
44.314613478 4750.0
44.340874043 4473.0
44.367134608 4119.0
44.393395173 3947.0
44.419655738 3837.0
44.445916303 3524.0
44.472176868 3432.0
44.498437433 3350.0
44.524697998 3268.0
44.550958563 3165.0
44.577219128 3186.0
44.603479693 3064.0
44.629740258 3125.0
44.656000823 3250.0
44.682261388 3303.0
44.708521953 3381.0
44.734782518 3444.0
44.761043083 3592.0
44.787303648 3527.0
44.813564213 3865.0
44.839824778 3883.0
44.866085343 3956.0
44.892345908 4148.0
44.918606473 4473.0
44.944867038 4618.0
44.971127603 4724.0
44.997388168 4981.0
45.023648733 5125.0
45.049909298 5286.0
45.076169863 5313.0
45.102430428 5514.0
45.128690993 5470.0
45.154951558 5594.0
45.181212123 5584.0
45.207472688 5516.0
45.233733253 5336.0
45.259993818 5343.0
45.286254383 5093.0
45.312514948 4776.0
45.338775513 4739.0
45.365036078 4386.0
45.391296643 4244.0
45.417557208 4005.0
45.443817773 3735.0
45.470078338 3770.0
45.496338904 3467.0
45.522599469 3322.0
45.548860034 3133.0
45.575120599 2992.0
45.601381164 2888.0
45.627641729 2693.0
45.653902294 2563.0
45.680162859 2464.0
45.706423424 2443.0
45.732683989 2396.0
45.758944554 2224.0
45.785205119 2171.0
45.811465684 2149.0
45.837726249 2067.0
45.863986814 2095.0
45.890247379 1953.0
45.916507944 2000.0
45.942768509 1928.0
45.969029074 1809.0
45.995289639 1911.0
46.021550204 1844.0
46.047810769 1756.0
46.074071334 1751.0
46.100331899 1718.0
46.126592464 1723.0
46.152853029 1697.0
46.179113594 1708.0
46.205374159 1655.0
46.231634724 1676.0
46.257895289 1565.0
46.284155854 1609.0
46.310416419 1661.0
46.336676984 1664.0
46.362937549 1596.0
46.389198114 1504.0
46.415458679 1522.0
46.441719244 1573.0
46.467979809 1604.0
46.494240374 1583.0
46.520500939 1475.0
46.546761504 1469.0
46.573022069 1551.0
46.599282634 1528.0
46.625543199 1568.0
46.651803764 1506.0
46.678064329 1503.0
46.704324894 1420.0
46.730585459 1486.0
46.756846024 1340.0
46.783106589 1448.0
46.809367154 1376.0
46.835627719 1441.0
46.861888284 1393.0
46.888148849 1458.0
46.914409414 1434.0
46.940669979 1411.0
46.966930544 1340.0
46.993191109 1395.0
47.019451674 1302.0
47.045712239 1312.0
47.071972804 1445.0
47.098233369 1373.0
47.124493934 1390.0
47.150754499 1337.0
47.177015064 1367.0
47.203275629 1383.0
47.229536194 1334.0
47.255796759 1392.0
47.282057324 1365.0
47.308317889 1383.0
47.334578454 1413.0
47.360839019 1329.0
47.387099584 1354.0
47.413360149 1372.0
47.439620714 1346.0
47.465881279 1323.0
47.492141844 1372.0
47.518402409 1301.0
47.544662974 1400.0
47.570923539 1376.0
47.597184104 1372.0
47.623444669 1332.0
47.649705234 1374.0
47.675965799 1338.0
47.702226364 1374.0
47.728486929 1350.0
47.754747494 1301.0
47.781008059 1313.0
47.807268624 1323.0
47.833529189 1350.0
47.859789754 1388.0
47.886050319 1309.0
47.912310884 1425.0
47.938571449 1353.0
47.964832014 1282.0
47.991092579 1307.0
48.017353144 1363.0
48.043613709 1265.0
48.069874274 1334.0
48.096134839 1293.0
48.122395404 1210.0
48.148655969 1269.0
48.174916534 1292.0
48.201177099 1345.0
48.227437664 1277.0
48.253698229 1298.0
48.279958794 1304.0
48.306219359 1241.0
48.332479924 1302.0
48.358740489 1368.0
48.385001054 1261.0
48.411261619 1309.0
48.437522184 1362.0
48.463782749 1325.0
48.490043315 1300.0
48.516303880 1288.0
48.542564445 1269.0
48.568825010 1247.0
48.595085575 1341.0
48.621346140 1342.0
48.647606705 1260.0
48.673867270 1256.0
48.700127835 1211.0
48.726388400 1283.0
48.752648965 1335.0
48.778909530 1243.0
48.805170095 1352.0
48.831430660 1232.0
48.857691225 1360.0
48.883951790 1280.0
48.910212355 1306.0
48.936472920 1316.0
48.962733485 1362.0
48.988994050 1424.0
49.015254615 1362.0
49.041515180 1341.0
49.067775745 1379.0
49.094036310 1359.0
49.120296875 1324.0
49.146557440 1357.0
49.172818005 1356.0
49.199078570 1355.0
49.225339135 1319.0
49.251599700 1383.0
49.277860265 1377.0
49.304120830 1417.0
49.330381395 1410.0
49.356641960 1341.0
49.382902525 1396.0
49.409163090 1419.0
49.435423655 1448.0
49.461684220 1439.0
49.487944785 1454.0
49.514205350 1464.0
49.540465915 1341.0
49.566726480 1404.0
49.592987045 1494.0
49.619247610 1456.0
49.645508175 1571.0
49.671768740 1564.0
49.698029305 1573.0
49.724289870 1563.0
49.750550435 1633.0
49.776811000 1526.0
49.803071565 1623.0
49.829332130 1604.0
49.855592695 1631.0
49.881853260 1692.0
49.908113825 1743.0
49.934374390 1749.0
49.960634955 1761.0
49.986895520 1682.0
