lambda	Blanco	Ps solo	Ps cef3 5 vieja	Ps cef3 5	PS cef3 10 	Emcorri	WG280 %T
265	360034	820178	590092	630105	500066	4.93484	3.882861137
266	600095	890.21	740145	420047	530074	5.547325	4.890387058
267	520072	940234	730141	510069	680123	6.15981	5.867950439
268	470059	830183	670119	610099	440051	5.481575	6.828295231
269	420047	720137	760153	620102	520072	4.80334	8.324011803
270	330029	790165	780161	520072	540077	4.49386	9.860377312
271	360034	740145	720137	520072	510069	4.18438	11.53734875
272	380038	670119	760153	730141	480061	4.371635	13.2042141
273	380038	990.26	510069	670119	380038	4.55889	14.85483932
274	240015	800.17	970249	650112	500066	4.31687	17.20119095
275	520072	800.17	760153	520072	360034	4.208185361	19.40528297
276	490064	730141	770157	470059	710134	4.401569581	21.73467064
277	530074	860196	860196	580089	460056	4.366415368	24.19181824
278	520072	820178	630105	640109	540077	4.031093334	26.39494896
279	480061	900215	880205	640109	780161	3.802248839	29.03180504
280	390.04	850191	930229	610099	700.13	3.71347234	31.96199036
281	380038	820178	940234	650112	440051	3.835671348	34.88673782
282	300024	950239	860196	590092	480061	3.895643428	37.53077698
283	370036	770157	680123	660115	540077	3.926206329	39.91796494
284	460056	910219	880205	680123	520072	3.848215963	42.4909935
285	370036	790165	820178	650112	540077	3.746548057	45.40718079
286	500066	960244	700.13	800.17	430049	3.547659729	48.12622452
287	390.04	1060.3	610099	920224	570086	3.43699889	50.12465668
288	370036	1030.28	790165	1060.3	850191	3.352787076	52.95035172
289	430049	1110.33	870201	1060.3	600095	3.2313092	55.41016388
290	310025	1090.31	1060.3	930229	940234	3.253956074	57.68437195
291	380038	1620.7	1130.34	1790.85	980255	3.208350947	60.20805359
292	390.04	2021.08	1340.48	2691.92	1930.99	3.14198151	62.0943718
293	380038	2561.74	1930.99	4254.79	2451.59	3.096235352	64.26041412
294	480061	3493.23	2391.51	5487.96	3863.95	2.98800558	66.12650299
295	510069	5648.44	3883.99	7986.85	5227.23	2.902201989	67.99963379
296	420047	7605.28	4655.73	9513.9	7806.1	2.834115992	70.04199982
297	410045	10167.3	5999.52	11857.1	9584.25	2.682126702	71.16272736
298	360034	11716.2	6681.8	14455.1	11816.8	2.684353495	72.47503662
299	480061	14636.4	8840.64	17702.5	14344.2	2.576907673	74.1627655
300	410045	15916.7	10137.1	20945.3	16219.3	2.541461426	75.51767731
301	340031	18621.2	11676	23424.1	19368.7	2.457498654	76.94564819
302	420047	22452.4	13397.3	27204	21885.8	2.39748	77.87284088
303	360034	27001.2	15634.4	30188.7	26483.9	2.30907	78.82378387
304	570086	30290.3	18348.6	34796.5	29396.4	2.26905	80.01312256
305	360034	35234.5	22442.3	38935.6	34093.9	2.22903	80.91944122
306	430049	41897.6	26778	45437.4	37476.7	2.159015	81.82099152
307	740145	48819.6	31753.9	46779.4	43983.9	2.089	82.54047394
308	540077	62014.7	41621.6	57537.8	47404.5	2.09542	83.1991272
309	610099	82423.5	59671.8	71663.4	53410.3	2.10184	83.93270874
310	300024	121333	84699.6	92182.8	61952.8	2.06029	84.54941559
311	440051	150820	106959	105713	70387.4	2.01874	85.03229523
312	540077	176216	121525	116881	76620	2.01172	85.57793427
313	490064	205275	144915	128559	86026.7	2.0047	86.00643921
314	360034	254151	184107	152861	97663.8	1.973145	86.50711823
315	610099	309018	219876	178927	108713	1.94159	86.87857056
316	470059	345393	247208	191664	115300	1.90956	87.18294525
317	570086	377514	272199	205807	123270	1.87753	87.55510712
318	540077	474308	351581	257971	147402	1.84322	87.78924561
319	450054	684095	512485	344686	185862	1.80891	88.12541962
320	530074	877343	658033	442873	221661	1.80132	88.33364868
321	490064	1.02E+11	749022	491719	246011	1.79373	88.528862
322	520072	1.05E+11	778597	506237	251016	1.77478	88.74897003
323	490064	1.05E+11	777508	506892	254174	1.75583	88.93602753
324	560083	1.04E+11	774315	506892	258504	1.75499	89.11177826
325	410045	1.04E+11	767939	502395	257234	1.75415	89.31681061
326	520072	993341	732922	478581	252057	1.71851	89.36154175
327	620102	939177	692094	453611	247874	1.68287	89.46946716
328	660115	915888	686417	452833	244116	1.66355	89.64590454
329	600095	951260	713694	469322	254264	1.64423	89.74259949
330	560083	995187	750473	491455	265210	1.62814	89.83925629
331	540077	1.02E+11	777913	502382	270567	1.61205	89.96324158
332	650112	1.04E+11	791271	516507	276611	1.61231	90.06891632
333	690126	1.06E+11	822947	522755	282420	1.61257	90.09038544
334	590092	1.12E+11	872293	556823	300132	1.59924	90.23290253
335	680123	1.19E+11	928597	594883	316039	1.58591	90.29420471
336	620102	1.20E+11	936378	591818	315201	1.56651	90.34825134
337	590092	1.16E+11	905855	568797	307208	1.54711	90.30892181
338	590092	1.09E+09	854343	539164	292652	1.52987	90.43067932
339	620102	1.03E+09	816179	520281	281456	1.51263	90.54769135
340	880205	1.00E+11	803522	495883	274461	1.504865	90.51291656
341	600095	964594	760163	484097	268628	1.4971	90.62539673
342	710134	914615	726708	455080	257154	1.481225	90.65976715
343	580089	850863	674062	433797	246090	1.46535	90.70008087
344	520072	808087	651546	408020	237272	1.44946	90.71937561
345	630105	780258	636577	405986	229856	1.43357	90.7035675
346	760153	779127	638978	401960	226308	1.41724	90.74420929
347	780161	773855	641540	401054	228266	1.40091	90.81719208
348	740145	777006	637240	395144	225838	1.383775	90.84937286
349	750149	763882	633940	389693	226420	1.36664	90.8616333
350	700.13	736949	622760	385395	221705	1.349195	90.79025269
351	650112	725777	611902	375471	211674	1.33175	90.88872528
352	630105	697919	584451	363127	203006	1.320635	90.90267944
353	690126	649187	551274	332856	196390	1.30952	90.89910126
354	780161	601821	505707	317553	182090	1.31308	90.92018127
355	740145	552236	463814	289198	170805	1.31664	90.94924927
356	660115	519305	440969	270612	160545	1.293885	91.00883484
357	930229	483036	420137	256939	151911	1.27113	91.03983307
358	750149	459418	397470	242967	147004	1.27513	91.02688599
359	1130.34	432047	371544	230617	141002	1.27913	91.05859375
360	870201	403144	355250	220188	132630	1.26672	91.13417816
361	930229	369541	327069	201447	123558	1.25431	91.06280518
362	840187	343248	306964	191961	116414	1.2551	91.11741638
363	970249	327677	291972	179704	112639	1.25589	91.05747986
364	690126	309424	277343	175627	106980	1.249085	91.15351868
365	900215	299970	270727	168029	103160	1.24228	91.14274597
366	840187	289485	264323	162932	99325.8	1.235105	91.17626953
367	760153	275330	253709	156364	96013.7	1.22793	91.12612915
368	780161	262298	237958	147165	89091.9	1.22277	91.20710754
369	1010.27	246711	224195	137031	84898	1.21761	91.24784851
370	890.21	227684	209232	128708	79597.8	1.214145	91.24365234
371	920224	208467	190608	120780	76765.6	1.21068	91.22220612
372	980255	190058	175463	110871	69443.8	1.209565	91.22595978
373	1010.27	174120	163833	101284	63802.2	1.20845	91.1947403
374	910219	160079	148890	94627.4	60724.2	1.19645	91.25164032
375	970249	150356	140765	88641.8	57197.8	1.18445	91.24750519
376	950239	137664	130748	84689.1	54305	1.177915	91.31217194
377	820178	128228	124303	78014.6	50872.3	1.17138	91.24681854
378	870201	121642	119983	73168.8	48050.4	1.1674	91.23748779
379	850191	112502	111877	70594.8	44014.6	1.16342	91.28955841
380	870201	106832	103961	65425.7	43625.8	1.159255	91.27579498
381	860196	98978.5	97190.7	61612	40395.6	1.15509	91.33210754
382	870201	91281.2	92434.5	57898.4	37578.7	1.14369	91.33273315
383	1010.27	88495.2	87176.9	54490.2	36997.5	1.13229	91.36297607
384	1160.36	81870.6	82882.7	50092	34134.6	1.12923	91.28027344
385	1250.41	76880.1	78233.3	51242	33035.5	1.12617	91.34507751
386	950239	74498.7	75808.6	47261	31255.7	1.11865	91.3170166
387	1160.36	71621.9	71871	45990.5	28949.6	1.11113	91.34539795
388	1050.29	67754.8	66853.9	42858.6	27417.1	1.1035	91.35873413
389	950239	62861.8	63864.2	40640.8	27853.3	1.09587	91.3698349
390	1020.28	59723.4	59702.8	37405.4	24021.5	1.091825	91.39083099
391	950239	53945	54541.7	35315.9	23413.9	1.08778	91.37852478
392	1080.31	50338.4	52238.5	31631.9	22250	1.08164	91.37358093
393	1080.31	46154.4	48111.9	29985.5	20530.8	1.0755	91.38119507
394	990.26	44864.1	43451.9	28381.1	19287.8	1.07127	91.41035461
395	1030.28	40150.5	41836.3	25814.8	17672.2	1.06704	91.38129425
396	1250.41	38660.1	37650.1	23454.4	17702.5	1.06217	91.42043304
397	1190.38	35122.4	34389.2	22098.3	16380.6	1.0573	91.43961334
398	1300.45	32160.6	32699.7	21016.1	14152.8	1.05077	91.39996338
399	1460.56	31082.9	32547.1	19732.4	14172.9	1.04424	91.41033936
400	1450.56	29721.4	29254.2	17732.7	13679.3	1.0383	91.42147064
401	1220.39	28056.3	28401.4	18247.6	12632.1	1.03236	91.43768311
402	1370.5	27640.3	26778	16532	12078.5	1.03407	91.44302368
403	1180.37	24730.5	24284.8	15926.8	11253.4	1.03578	91.44345856
404	1290.44	23484.8	24173.4	15856.2	10328.2	1.030725	91.44226074
405	1190.38	22179.2	22725.6	14626.4	10257.8	1.02567	91.42906952
406	1230.4	22088.2	21491.4	13709.5	10006.4	1.0271	91.47882843
407	1370.5	19863.7	20086.1	13195.9	9081.78	1.02853	91.41885376
408	1580.66	19005	19894.1	12068.4	8268.06	1.024195	91.43843079
409	1510.6	18661.6	18651.5	11404.3	8308.23	1.01986	91.50600433
410	1320.46	17419.9	17702.5	10479	8167.62	1.017225	91.43191528
411	1460.56	17036.4	17268.5	10086.9	7434.6	1.01459	91.4537735
412	1390.51	15826	16632.8	9775.22	7705.69	1.012745	91.47228241
413	1620.7	15543.6	14807.8	9343.05	6541.31	1.0109	91.4535141
414	1400.52	14616.3	14898.5	9061.68	6511.21	1.00831	91.48718262
415	1510.6	13618.9	13528.2	8067.19	6501.17	1.00572	91.5065155
416	1810.87	12883.8	12360.3	7524.96	6190.13	1.007735	91.49594879
417	1630.7	12934.1	12934.1	7233.83	5618.35	1.00975	91.5069046
418	1450.56	12571.7	11515	7615.32	5217.2	1.004875	91.52145386
419	1730.79	11726.3	11112.6	6982.89	5307.45	1	91.51596069
420	1610.69	11183	11233.3	6561.38	5157.03	1.00678	91.49002838
421	1590.67	10991.9	9745.07	5949.36	5187.12	1.01356	91.50514221
422	1580.66	10418.6	10479	5788.86	4475.3	1.01046	91.52078247
423	1640.71	10207.5	9885.8	5207.17	4455.25	1.00736	91.5280304
424	1660.73	10750.5	9212.41	5387.68	4445.23	1.009075	91.54736328
425	1620.7	9946.11	8559.35	5217.2	4294.88	1.01079	91.51602173
426	2091.16	8730.13	8298.19	4976.55	3493.23	1.01123	91.5300827
427	1870.93	8921.02	8830.59	4735.93	3763.75	1.01167	91.52268982
428	1680.75	8870.78	8187.71	4725.91	3453.16	1.01169	91.51315308
429	1650.72	8559.35	7535	4334.97	3292.87	1.01171	91.51552582
430	1590.67	8077.23	6832.34	4465.27	3332.94	1.01178	91.53972626
431	1640.71	8539.26	7434.6	3723.67	2912.24	1.01185	91.56067657
432	1770.83	8810.5	7153.52	4134.52	2992.37	1.01601	91.56812286
433	2121.19	8398.63	6802.23	3934.09	2762.02	1.02017	91.5480957
434	1810.87	7123.41	6420.9	3944.12	2721.96	1.021385	91.53053284
435	1850.91	7043.11	6471.07	4034.31	2882.2	1.0226	91.58558655
436	1790.85	7374.37	6180.1	3863.95	2741.99	1.026795	91.56383514
437	2011.07	6952.77	6089.8	3473.19	2802.08	1.03099	91.55982208
438	1941	6430.93	5588.26	3322.92	2711.95	1.03034	91.587677
439	2101.17	6611.55	5618.35	3232.77	2521.68	1.02969	91.57442474
440	2041.1	6420.9	5157.03	3563.36	2832.12	1.032625	91.57614899
441	2361.48	5387.68	5377.65	3262.82	2251.34	1.03556	91.59424591
442	1930.99	6019.58	5337.53	3463.17	2271.37	1.03519	91.56745911
443	1890.95	5969.42	4866.26	3312.9	2461.6	1.03482	91.59037781
444	1951.01	6220.23	4184.63	3032.43	2101.17	1.037325	91.56803131
445	2021.08	5899.2	4806.11	3012.4	2331.44	1.03983	91.58119965
446	2111.18	5598.29	5217.2	2992.37	2421.55	1.040765	91.6265564
447	1971.03	5327.51	4836.19	2621.82	2141.21	1.0417	91.62297821
448	2231.32	5397.7	4164.59	2361.48	1920.98	1.04686	91.59481812
449	2201.28	5648.44	4204.68	2381.5	2051.11	1.05202	91.58946228
450	2011.07	5036.71	3803.83	2411.54	2171.25	1.052765	91.60566711
451	2041.1	5026.68	4124.5	2571.75	2111.18	1.05351	91.58662415
452	2521.68	4986.58	4294.88	2511.67	2201.28	1.056725	91.63697052
453	1961.02	4866.26	3683.59	2111.18	1850.91	1.05994	91.58909607
454	2111.18	4485.32	3904.03	2241.33	1890.95	1.066035	91.61660767
455	2231.32	4826.16	3713.65	2061.12	1880.94	1.07213	91.60269928
456	2251.34	4425.18	4144.54	2191.27	1740.8	1.0741	91.61301422
457	2481.63	4154.57	3463.17	1971.03	1590.67	1.07607	91.60410309
458	2561.74	4655.73	3272.83	2401.53	1941	1.07715	91.60034943
459	2121.19	4064.37	3112.56	2161.24	1680.75	1.07823	91.63531494
460	2471.62	4264.81	3132.6	2201.28	1770.83	1.08041	91.63102722
461	2481.63	3723.67	3352.98	2091.16	1610.69	1.08259	91.60426331
462	2331.44	3613.46	3232.77	2011.07	1580.66	1.091325	91.63591766
463	2221.31	3533.3	3523.28	1951.01	1460.56	1.10006	91.61390686
464	2371.49	3743.71	2962.32	2131.2	1470.57	1.09993	91.6335907
465	2972.34	3974.18	3122.58	1600.68	1810.87	1.0998	91.62635803
466	2301.4	3643.51	2902.23	2051.11	1510.6	1.10507	91.63275909
467	2431.57	3092.53	2581.76	1870.93	1550.64	1.11034	91.60466003
468	2932.28	3553.34	2421.55	1820.88	1830.89	1.11105	91.62149048
469	2371.49	3653.53	2942.29	1450.56	1610.69	1.11176	91.63426971
470	2952.31	3142.61	2411.54	1850.91	1510.6	1.12104	91.64762878
471	2581.76	3413.08	2591.78	1580.66	1360.49	1.13032	91.66873932
472	2251.34	3403.06	2391.51	1650.72	1210.39	1.13339	91.65550995
473	2601.79	3252.8	2191.27	1420.53	1220.39	1.13646	91.66291809
474	2541.71	3272.83	2721.96	1680.75	1210.39	1.141335	91.68461609
475	2792.06	2992.37	2361.48	1410.53	1130.34	1.14621	91.67499542
476	2561.74	3383.03	2561.74	1540.63	1260.42	1.147145	91.66195679
477	2842.14	3012.4	2081.15	1330.47	1610.69	1.14808	91.64454651
478	2772.03	3082.51	1760.82	1330.47	1280.43	1.15281	91.64098358
479	2371.49	2721.96	2011.07	1560.65	1130.34	1.15754	91.67727661
480	2441.58	3092.53	1941	1590.67	1310.45	1.16227	91.66784668
481	2752	2972.34	1880.94	1700.77	1340.48	1.167	91.66867065
482	2671.89	2782.05	2451.59	1520.61	1250.41	1.170955	91.68103027
483	3082.51	3002.39	2171.25	1220.39	1300.45	1.17491	91.69202423
484	2972.34	2701.93	1991.05	1300.45	1090.31	1.17399	91.72000885
485	2671.89	2471.62	2231.32	1270.43	1350.48	1.17307	91.67086792
486	2802.08	2521.68	1981.04	1620.7	1330.47	1.1782	91.74079132
487	2721.96	2431.57	1760.82	1180.37	1220.39	1.18333	91.65326691
488	2701.93	2281.38	1850.91	1370.5	970249	1.189385	91.66899109
489	2782.05	2421.55	1600.68	1540.63	1080.31	1.19544	91.7077179
490	2752	2071.14	1981.04	1290.44	1190.38	1.20245	91.73259735
491	3112.56	2411.54	1730.79	1300.45	970249	1.20946	91.72432709
492	2691.92	2361.48	1930.99	1170.36	1080.31	1.212145	91.70627594
493	2762.02	2491.64	1790.85	1190.38	1230.4	1.21483	91.72859192
494	2481.63	2551.72	1991.05	1060.3	1080.31	1.2219	91.70384979
495	2561.74	1991.05	1560.65	1360.49	1010.27	1.22897	91.70459747
496	2731.98	2221.31	1780.84	1120.33	950239	1.23794	91.77915192
497	2231.32	1971.03	1580.66	950239	930229	1.24691	91.77124786
498	2591.78	2071.14	1860.92	1140.34	980255	1.254185	91.715065
499	2471.62	2211.29	1710.78	1160.36	950239	1.26146	91.74410248
500	2501.66	2221.31	1340.48	1210.39	1060.3	1.26738	91.73744202
501	2551.72	2171.25	1480.58	1050.29	900215	1.2733	91.71607208
502	2671.89	1800.86	1550.64	1150.35	1130.34	1.28177	91.72144318
503	2341.45	1890.95	1450.56	1010.27	1020.28	1.29024	91.72512054
504	2511.67	1961.02	1650.72	1030.28	850191	1.29453	91.74305725
505	2501.66	1430.54	1400.52	1210.39	1030.28	1.29882	91.78302002
506	2741.99	1800.86	1270.43	920224	790165	1.305905	91.72623444
507	2611.81	1730.79	1710.78	790165	710134	1.31299	91.75867462
508	2812.09	1981.04	1440.55	910219	960244	1.32217	91.73132324
509	2561.74	1941	1330.47	920224	750149	1.33135	91.73228455
510	2431.57	1570.65	1220.39	860196	740145	1.33508	91.76551056
