lambda	blanco	5 cef3	7.3 cef3	10 cef3	Emcorri	WG280 %T
265	360.034	436.721	536.744	576.756	4.93484	3.882861137
266	600.095	500.066	540.078	530.075	5.547325	4.890387058
267	520.072	423.383	496.735	363.371	6.15981	5.867950439
268	470.059	460.057	473.394	510.071	5.481575	6.828295231
269	420.047	476.728	433.385	526.741	4.80334	8.324011803
270	330.029	486.731	403.378	460.059	4.49386	9.860377312
271	360.034	443.386	450.054	353.369	4.18438	11.53734875
272	380.038	460.056	450.055	406.711	4.371635	13.2042141
273	380.038	516.739	426.715	426.716	4.55889	14.85483932
274	240.015	446.72	440.052	463.391	4.31687	17.20119095
275	520.072	436.718	350.033	343.365	4.208185361	19.40528297
276	490.064	420.05	373.37	440.052	4.401569581	21.73467064
277	530.074	400.043	406.711	433.383	4.366415368	24.19181824
278	520.072	416.713	433.383	423.382	4.031093334	26.39494896
279	480.061	536.744	363.369	353.368	3.802248839	29.03180504
280	390.04	406.713	340.031	403.377	3.71347234	31.96199036
281	380.038	430.049	493.398	376.705	3.835671348	34.88673782
282	300.024	410.047	313.36	440.052	3.895643428	37.53077698
283	370.036	446.72	403.379	370.037	3.926206329	39.91796494
284	460.056	456.724	470.059	420.048	3.848215963	42.4909935
285	370.036	426.716	420.047	473.394	3.746548057	45.40718079
286	500.066	573.421	486.73	480.061	3.547659729	48.12622452
287	390.04	566.752	446.72	560.085	3.43699889	50.12465668
288	370.036	780.168	393.376	543.412	3.352787076	52.95035172
289	430.049	986.926	553.415	846.857	3.2313092	55.41016388
290	310.025	1563.99	576.759	910.221	3.253956074	57.68437195
291	380.038	1944.34	703.465	1320.46	3.208350947	60.20805359
292	390.04	2772.04	1073.64	1660.73	3.14198151	62.0943718
293	380.038	3833.89	1357.16	2418.23	3.096235352	64.26041412
294	480.061	5009.98	2131.2	3389.71	2.98800558	66.12650299
295	510.069	6648.39	2928.94	4749.32	2.902201989	67.99963379
296	420.047	8984.66	3279.52	6106.53	2.834115992	70.04199982
297	410.045	11048.9	4234.76	7842.98	2.682126702	71.16272736
298	360.034	13283.2	5157.03	9111.93	2.684353495	72.47503662
299	480.061	15234.5	6270.4	11354	2.576907673	74.1627655
300	410.045	17981.9	7006.31	13253	2.541461426	75.51767731
301	340.031	20942	8492.38	15657.9	2.457498654	76.94564819
302	420.047	23282.3	9406.71	17177.7	2.39748	77.87284088
303	360.034	26200	10388.5	19991.9	2.30907	78.82378387
304	570.086	29061.4	11766.5	22293.9	2.26905	80.01312256
305	360.034	31984.6	13390.7	24777.8	2.22903	80.91944122
306	430.049	34504.7	15372.3	27951.5	2.159015	81.82099152
307	740.145	38095.9	16952.4	30493.6	2.089	82.54047394
308	540.077	41240.2	18628	32604.8	2.09542	83.1991272
309	610.099	43346.3	21110.5	35584.3	2.10184	83.93270874
310	300.024	45813.3	22638	37810.2	2.06029	84.54941559
311	440.051	47363.6	25274.3	39255.5	2.01874	85.03229523
312	540.077	50287.3	28502.9	41240.1	2.01172	85.57793427
313	490.064	52982.3	30933.9	42828.4	2.0047	86.00643921
314	360.034	54123.3	34046.6	45806.6	1.973145	86.50711823
315	610.099	57620.2	37035	46338.8	1.94159	86.87857056
316	470.059	58616.6	41001.9	49493.4	1.90956	87.18294525
317	570.086	61866.8	45857.4	51567.3	1.87753	87.55510712
318	540.077	63471.7	52584.6	52609	1.84322	87.78924561
319	450.054	66539.9	60600.5	56164.6	1.80891	88.12541962
320	530.074	69803.2	68400.7	57472.6	1.80132	88.33364868
321	490.064	72497.4	75597.5	59383.3	1.79373	88.528862
322	520.072	73504.7	78851.5	61787.5	1.77478	88.74897003
323	490.064	75583.7	81801.1	62820.7	1.75583	88.93602753
324	560.083	76301.1	83411.6	62452.2	1.75499	89.11177826
325	410.045	77490.8	83940.7	64236.4	1.75415	89.31681061
326	520.072	76148.8	82315.8	65187.9	1.71851	89.36154175
327	620.102	78465.9	83098.9	64819	1.68287	89.46946716
328	660.115	78163.9	82757.5	66505.6	1.66355	89.64590454
329	600.095	79208.9	86211.4	67430.5	1.64423	89.74259949
330	560.083	78580.6	88178.7	68190	1.62814	89.83925629
331	540.077	80960.2	92707.4	67630.6	1.61205	89.96324158
332	650.112	81241.4	94316.1	68349.5	1.61231	90.06891632
333	690.126	82076	96665.3	68577.4	1.61257	90.09038544
334	590.092	80810.5	100442	70446.2	1.59924	90.23290253
335	680.123	81933.2	102801	69230.1	1.58591	90.29420471
336	620.102	81099	104324	69620.6	1.56651	90.34825134
337	590.092	79528.4	101565	69602.8	1.54711	90.30892181
338	590.092	79684.8	99220.9	67879.2	1.52987	90.43067932
339	620.102	77900.5	96816.1	68044.9	1.51263	90.54769135
340	880.205	77015.7	95310.2	67562	1.504865	90.51291656
341	600.095	75354.9	91649	65223.3	1.4971	90.62539673
342	710.134	72950.8	90810.4	65019	1.481225	90.65976715
343	580.089	71981.8	87863.9	63674.8	1.46535	90.70008087
344	520.072	71591.3	85407.1	62114.6	1.44946	90.71937561
345	630.105	69340.2	83578.7	61522.7	1.43357	90.7035675
346	760.153	67506.4	82719.5	60308.1	1.41724	90.74420929
347	780.161	68014	83374.1	58506.7	1.40091	90.81719208
348	740.145	65525.8	82333.2	58290.3	1.383775	90.84937286
349	750.149	65112.3	81700.2	57300.8	1.36664	90.8616333
350	700.13	62948	80056.7	57084.7	1.349195	90.79025269
351	650.112	61753.7	77948.8	54442.2	1.33175	90.88872528
352	630.105	61426.4	75649.3	53324.7	1.320635	90.90267944
353	690.126	59524	72798.9	51389.2	1.30952	90.89910126
354	780.161	55697.7	68165.8	49048.7	1.31308	90.92018127
355	740.145	53917.8	66778	47578.9	1.31664	90.94924927
356	660.115	51872.3	62627.8	46451.7	1.293885	91.00883484
357	930.229	50037.3	60782.8	44301.2	1.27113	91.03983307
358	750.149	47285	57379.9	42708.7	1.27513	91.02688599
359	1130.34	45796.3	55533.4	40695.4	1.27913	91.05859375
360	870.201	44724.3	51783.2	39350.8	1.26672	91.13417816
361	930.229	42592.8	50485.6	37884.8	1.25431	91.06280518
362	840.187	41233.4	48436.9	36318	1.2551	91.11741638
363	970.249	40419.7	46745.6	34837.3	1.25589	91.05747986
364	690.126	36977.2	44202.2	32676.1	1.249085	91.15351868
365	900.215	36375.8	42150	31994.5	1.24228	91.14274597
366	840.187	34735.4	42507.9	31167.7	1.235105	91.17626953
367	760.153	33361.1	40480.9	29173	1.22793	91.12612915
368	780.161	31689.6	38367.7	28262.7	1.22277	91.20710754
369	1010.27	29846.8	36810.7	27149.9	1.21761	91.24784851
370	890.21	29007.1	34746	25818.2	1.214145	91.24365234
371	920.224	27122.9	33890.4	24892.6	1.21068	91.22220612
372	980.255	26335.4	31991.2	23613.2	1.209565	91.22595978
373	1010.27	25740.5	29691	22435.6	1.20845	91.1947403
374	910.219	23437.6	28421.7	21518.3	1.19645	91.25164032
375	970.249	22840.3	27437.4	20207.4	1.18445	91.24750519
376	950.239	21592.5	26287.9	20140	1.177915	91.31217194
377	820.178	21258.8	24733.9	18685.3	1.17138	91.24681854
378	870.201	20002.1	24301.8	18197.1	1.1674	91.23748779
379	850.191	18756	22985.5	16925.4	1.16342	91.28955841
380	870.201	19072.4	21956.7	16484.9	1.159255	91.27579498
381	860.196	17729.4	20146.8	15866.3	1.15509	91.33210754
382	870.201	17595	20130	15563.9	1.14369	91.33273315
383	1010.27	16612.7	19025.2	14723.9	1.13229	91.36297607
384	1160.36	15984	18527	14021.8	1.12923	91.28027344
385	1250.41	15093.3	18294.7	13185.8	1.12617	91.34507751
386	950.239	14468.5	17726	13172.5	1.11865	91.3170166
387	1160.36	14203.2	17046.5	12212.7	1.11113	91.34539795
388	1050.29	13165.7	16337	12112.1	1.1035	91.35873413
389	950.239	12407.3	15526.8	11307.1	1.09587	91.3698349
390	1020.28	12065.1	15321.9	11270.2	1.091825	91.39083099
391	950.239	11686.1	14696.9	10623.1	1.08778	91.37852478
392	1080.31	10877.9	13854	10076.8	1.08164	91.37358093
393	1080.31	10790.8	13034.8	9601.04	1.0755	91.38119507
394	990.26	10891.3	12930.8	9302.86	1.07127	91.41035461
395	1030.28	10391.8	12773.1	9051.65	1.06704	91.38129425
396	1250.41	10167.3	11458	8941.17	1.06217	91.42043304
397	1190.38	9714.92	11189.7	8201.12	1.0573	91.43961334
398	1300.45	9852.3	11307.1	8582.79	1.05077	91.39996338
399	1460.56	9714.92	10586.2	7889.79	1.04424	91.41033936
400	1450.56	9165.59	10036.6	7672.22	1.0383	91.42147064
401	1220.39	9135.37	9302.86	7290.73	1.03236	91.43768311
402	1370.5	8887.54	9949.47	7320.84	1.03407	91.44302368
403	1180.37	8448.85	9450.35	6969.52	1.03578	91.44345856
404	1290.44	8154.26	9239.21	6738.72	1.030725	91.44226074
405	1190.38	7682.26	8686.6	6614.93	1.02567	91.42906952
406	1230.4	7371.04	8077.24	6330.59	1.0271	91.47882843
407	1370.5	7110.03	8117.43	6183.45	1.02853	91.41885376
408	1580.66	6976.2	8311.6	5768.8	1.024195	91.43843079
409	1510.6	6946.09	7535.03	5695.25	1.01986	91.50600433
410	1320.46	6507.9	7702.35	6116.57	1.017225	91.43191528
411	1460.56	7023.05	7344.29	5705.27	1.01459	91.4537735
412	1390.51	6895.94	7217.21	5457.89	1.012745	91.47228241
413	1620.7	6143.34	7083.27	5290.77	1.0109	91.4535141
414	1400.52	6039.66	6892.57	5467.91	1.00831	91.48718262
415	1510.6	6170.09	6538.01	4989.92	1.00572	91.5065155
416	1810.87	6093.16	6588.17	4993.3	1.007735	91.49594879
417	1630.7	5895.89	6273.76	4879.69	1.00975	91.5069046
418	1450.56	5788.87	6451.06	4649.05	1.004875	91.52145386
419	1730.79	5541.46	5972.8	4485.33	1	91.51596069
420	1610.69	5394.36	5989.49	4214.7	1.00678	91.49002838
421	1590.67	5053.46	5628.4	4321.65	1.01356	91.50514221
422	1580.66	4916.41	5541.5	4067.73	1.01046	91.52078247
423	1640.71	5147.01	5344.23	3797.15	1.00736	91.5280304
424	1660.73	4792.75	5324.16	3773.77	1.009075	91.54736328
425	1620.7	4692.52	4936.45	3730.35	1.01079	91.51602173
426	2091.16	4311.58	4946.52	3757.07	1.01123	91.5300827
427	1870.93	4699.18	4909.71	3560.02	1.01167	91.52268982
428	1680.75	4495.35	4665.76	3399.73	1.01169	91.51315308
429	1650.72	4345	4348.34	3476.54	1.01171	91.51552582
430	1590.67	4047.68	4428.52	3179.36	1.01178	91.53972626
431	1640.71	3887.34	4401.8	3342.99	1.01185	91.56067657
432	1770.83	3676.92	4094.44	3316.25	1.01601	91.56812286
433	2121.19	3937.44	4331.64	3276.18	1.02017	91.5480957
434	1810.87	3713.65	3930.78	3266.19	1.021385	91.53053284
435	1850.91	3733.7	3837.27	3052.48	1.0226	91.58558655
436	1790.85	3586.74	3904.05	3279.51	1.026795	91.56383514
437	2011.07	3416.43	3787.13	2775.4	1.03099	91.55982208
438	1941	3246.13	3429.8	2898.89	1.03034	91.587677
439	2101.17	3242.79	3603.45	2858.84	1.02969	91.57442474
440	2041.1	3142.62	3476.54	2705.28	1.032625	91.57614899
441	2361.48	3122.59	3610.12	2705.27	1.03556	91.59424591
442	1930.99	3072.5	3546.66	2438.25	1.03519	91.56745911
443	1890.95	2872.19	3413.09	2535.04	1.03482	91.59037781
444	1951.01	3276.19	3176.01	2625.18	1.037325	91.56803131
445	2021.08	2915.6	3176.01	2608.47	1.03983	91.58119965
446	2111.18	3122.58	3202.73	2294.74	1.040765	91.6265564
447	1971.03	2862.18	3186.03	2508.34	1.0417	91.62297821
448	2231.32	2705.28	3012.41	2361.48	1.04686	91.59481812
449	2201.28	2989.03	3206.06	2381.51	1.05202	91.58946228
450	2011.07	3105.89	2955.66	2321.43	1.052765	91.60566711
451	2041.1	2845.48	2895.56	2424.9	1.05351	91.58662415
452	2521.68	2872.18	2922.27	2187.93	1.056725	91.63697052
453	1961.02	2902.23	3119.25	2214.64	1.05994	91.58909607
454	2111.18	2965.66	3209.4	2301.41	1.066035	91.61660767
455	2231.32	3059.15	2932.28	2361.48	1.07213	91.60269928
456	2251.34	2999.06	3095.87	2264.69	1.0741	91.61301422
457	2481.63	2835.46	2932.28	2164.58	1.07607	91.60410309
458	2561.74	2985.69	2825.45	2201.28	1.07715	91.60034943
459	2121.19	2798.76	3172.67	2204.62	1.07823	91.63531494
460	2471.62	2872.19	2875.52	2194.61	1.08041	91.63102722
461	2481.63	2908.91	2765.37	2077.81	1.08259	91.60426331
462	2331.44	2858.86	2802.08	2191.28	1.091325	91.63591766
463	2221.31	2454.94	2969.01	2061.13	1.10006	91.61390686
464	2371.49	2681.9	2805.43	2141.22	1.09993	91.6335907
465	2972.34	2979.02	2802.09	2027.77	1.0998	91.62635803
466	2301.4	2815.44	3019.08	2147.89	1.10507	91.63275909
467	2431.57	2935.62	2721.97	2248.01	1.11034	91.60466003
468	2932.28	2955.65	2868.85	2137.89	1.11105	91.62149048
469	2371.49	3162.65	2808.77	2114.53	1.11176	91.63426971
470	2952.31	2718.62	2875.53	2301.42	1.12104	91.64762878
471	2581.76	3029.1	2985.71	2181.26	1.13032	91.66873932
472	2251.34	2942.29	2955.65	2137.9	1.13339	91.65550995
473	2601.79	3009.07	2618.48	2101.17	1.13646	91.66291809
474	2541.71	2778.71	2531.7	2087.82	1.141335	91.68461609
475	2792.06	2905.58	2925.63	2061.13	1.14621	91.67499542
476	2561.74	2675.24	2665.22	2221.31	1.147145	91.66195679
477	2842.14	2718.63	2601.8	2057.8	1.14808	91.64454651
478	2772.03	2938.96	2631.84	1870.93	1.15281	91.64098358
479	2371.49	2772.05	2528.36	1991.06	1.15754	91.67727661
480	2441.58	2812.1	2802.08	1967.69	1.16227	91.66784668
481	2752	2558.41	2608.49	2001.08	1.167	91.66867065
482	2671.89	2708.62	2625.16	1957.7	1.170955	91.68103027
483	3082.51	2738.67	2288.06	1774.17	1.17491	91.69202423
484	2972.34	2661.88	2608.47	1797.53	1.17399	91.72000885
485	2671.89	2371.5	2227.99	1794.19	1.17307	91.67086792
486	2802.08	2558.42	2271.37	1764.16	1.1782	91.74079132
487	2721.96	2468.28	2151.23	1827.55	1.18333	91.65326691
488	2701.93	2241.35	2214.63	1700.77	1.189385	91.66899109
489	2782.05	2238	2054.45	1680.76	1.19544	91.7077179
490	2752	2238	2017.75	1664.08	1.20245	91.73259735
491	3112.56	2081.15	2151.23	1537.3	1.20946	91.72432709
492	2691.92	2184.6	1890.95	1644.05	1.212145	91.70627594
493	2762.02	2151.23	2187.94	1577.33	1.21483	91.72859192
494	2481.63	2041.11	1834.23	1407.2	1.2219	91.70384979
495	2561.74	2074.48	1827.56	1637.38	1.22897	91.70459747
496	2731.98	2044.45	1890.96	1547.31	1.23794	91.77915192
497	2231.32	2011.08	1961.02	1393.86	1.24691	91.77124786
498	2591.78	1984.4	1937.69	1570.65	1.254185	91.715065
499	2471.62	1944.34	1810.87	1420.54	1.26146	91.74410248
500	2501.66	1971.03	1804.2	1380.51	1.26738	91.73744202